sample1,,sample2,,sample3,,
Wavelength (nm),Abs,Wavelength (nm),Abs,Wavelength (nm),Abs,
800.0151978,0.0005618298892,800.0151978,0.0002418681688,800.0151978,0.000347347348,
799.0057373,1.524710297E-005,799.0057373,4.152307883E-005,799.0057373,0.0002702559286,
797.9959717,0.000239588946,797.9959717,5.542539657E-005,797.9959717,0.0003027383354,
796.9857178,-8.769280976E-005,796.9857178,-0.0002414489572,796.9857178,0.0001436908933,
796.0099487,-0.0001464381203,796.0099487,-0.0002560920257,796.0099487,-6.993825809E-005,
794.9989014,-0.0007411555271,794.9989014,-0.000590730051,794.9989014,-0.0001017199393,
793.9874878,-0.0001485082903,793.9874878,-0.0004765062477,793.9874878,-0.0009012420196,
793.0105591,-0.0002031055774,793.0105591,-0.0004619740648,793.0105591,-0.000568549498,
791.9983521,-0.0001387266384,791.9983521,-0.0004278912966,791.9983521,-0.000301880762,
790.9857178,-0.0003865642648,790.9857178,-0.00051472208,790.9857178,-0.0008621817688,
790.0076294,-0.0005601733574,790.0076294,-0.0006799577386,790.0076294,-0.0004817294539,
788.9942627,-0.0009084749618,788.9942627,-0.000520203379,788.9942627,-0.0006279535592,
788.0154419,-0.0007261153078,788.0154419,-0.0008339694468,788.0154419,-0.001121484092,
787.0012817,-0.0005591909285,787.0012817,-0.0007907173131,787.0012817,-0.0009146229131,
785.9865723,-0.001320917509,785.9865723,-0.0009262469248,785.9865723,-0.00102026097,
785.0067139,-0.001557196956,785.0067139,-0.001136252424,785.0067139,-0.0005283734645,
783.991272,-0.0007295782561,783.991272,-0.001447819523,783.991272,-0.0007610532921,
783.010498,-0.001073302701,783.010498,-0.000923767162,783.010498,-0.001145340386,
781.9944458,-0.001069119549,781.9944458,-0.001689444878,781.9944458,-0.001232647337,
781.0128784,-0.001603828743,781.0128784,-0.001811857102,781.0128784,-0.001698005595,
779.9960327,-0.001722449088,779.9960327,-0.001123136492,779.9960327,-0.001598928473,
779.0137329,-0.001409272896,779.0137329,-0.001922122203,779.0137329,-0.001902586897,
777.9960327,-0.001618735376,777.9960327,-0.002009221585,777.9960327,-0.00180592807,
777.0130615,-0.001943769865,777.0130615,-0.001983093563,777.0130615,-0.001440440654,
775.9945679,-0.002012210665,775.9945679,-0.001655252068,775.9945679,-0.001632248983,
775.0108032,-0.001922328374,775.0108032,-0.00169078575,775.0108032,-0.001689032419,
773.9916382,-0.001618683804,773.9916382,-0.001852687798,773.9916382,-0.001497300691,
773.0070801,-0.001818868681,773.0070801,-0.001900731237,773.0070801,-0.001853203285,
771.9870605,-0.001737764222,771.9870605,-0.001972992439,771.9870605,-0.001488839276,
771.0018921,-0.002114130184,771.0018921,-0.001552141388,771.0018921,-0.001562355552,
770.0162964,-0.00185944105,770.0162964,-0.001585981343,770.0162964,-0.002279891632,
768.9950562,-0.001828664099,768.9950562,-0.001683978364,768.9950562,-0.001802164363,
768.0087891,-0.001415620092,768.0087891,-0.001536922879,768.0087891,-0.001872792491,
766.9868164,-0.001011325279,766.9868164,-0.00147465046,766.9868164,-0.001005695318,
765.9997559,-0.0009499073494,765.9997559,-0.001039112918,765.9997559,-0.001465982175,
765.0123291,-0.0006290908786,765.0123291,-0.0007857562159,765.0123291,-0.0007567120483,
763.9892578,-1.553155357E-006,763.9892578,-0.0002354984463,763.9892578,5.656452413E-005,
763.0010986,2.912269156E-005,763.0010986,0.0002811608429,763.0010986,-6.621125794E-005,
762.0126343,-3.385752643E-005,762.0126343,-3.59282385E-005,762.0126343,0.0002985937172,
760.9883423,9.275932825E-005,760.9883423,0.0003682027454,760.9883423,0.0004549511359,
759.9991455,-0.0002170254884,759.9991455,-4.462511788E-005,759.9991455,-0.0001396582229,
759.0095825,-0.0006764427526,759.0095825,-0.0006052579265,759.0095825,-0.0004678697442,
757.9841919,-0.0008834690088,757.9841919,-0.001187885995,757.9841919,-0.00102537428,
756.9938965,-0.00165226066,756.9938965,-0.001449367497,756.9938965,-0.001454372541,
756.0031738,-0.001853976632,756.0031738,-0.001773600583,756.0031738,-0.002047818154,
755.012085,-0.002141332021,755.012085,-0.002344520297,755.012085,-0.002392148832,
753.9852905,-0.002950172871,753.9852905,-0.002473748988,753.9852905,-0.002561509842,
752.9934692,-0.002768256934,752.9934692,-0.0031037929,752.9934692,-0.002904353896,
752.0013428,-0.002668549074,752.0013428,-0.002881982597,752.0013428,-0.002850300865,
751.0089111,-0.002931249328,751.0089111,-0.003088268684,751.0089111,-0.003122503171,
750.0160522,-0.003260750091,750.0160522,-0.003027657978,750.0160522,-0.002856987063,
748.9873657,-0.002988222986,748.9873657,-0.002949967049,748.9873657,-0.002906205133,
747.9937744,-0.003372086445,747.9937744,-0.003258746117,747.9937744,-0.002942305291,
746.9998779,-0.003507429268,746.9998779,-0.003509175265,746.9998779,-0.003577883122,
746.0055542,-0.0038796484,746.0055542,-0.003763925517,746.0055542,-0.003942141309,
745.0108643,-0.004204687662,745.0108643,-0.004294047598,745.0108643,-0.004393537063,
744.0159302,-0.004891153425,744.0159302,-0.004685107619,744.0159302,-0.004683417268,
742.9850464,-0.00530085573,742.9850464,-0.005397762172,742.9850464,-0.005489228759,
741.9893799,-0.006316101179,741.9893799,-0.006519538816,741.9893799,-0.006229146849,
740.9933472,-0.00701442128,740.9933472,-0.006845972966,740.9933472,-0.00710259378,
739.9969482,-0.007820093073,739.9969482,-0.007797261234,739.9969482,-0.007448386867,
739.0001831,-0.008245736361,739.0001831,-0.008216526359,739.0001831,-0.008349657059,
738.0031128,-0.008691973053,738.0031128,-0.008875432424,738.0031128,-0.008579200134,
737.0056763,-0.009570007212,737.0056763,-0.009348130785,737.0056763,-0.009261680767,
736.0078735,-0.009631635621,736.0078735,-0.009935246781,736.0078735,-0.009664750658,
735.0097656,-0.01027601212,735.0097656,-0.01018944196,735.0097656,-0.01035022922,
734.0112305,-0.01091095153,734.0112305,-0.01105602831,734.0112305,-0.0107527962,
733.0123901,-0.01106667705,733.0123901,-0.01109140646,733.0123901,-0.01096921042,
732.0131836,-0.01147261448,732.0131836,-0.01135990676,732.0131836,-0.01158710849,
731.0136719,-0.01167279482,731.0136719,-0.01178653073,731.0136719,-0.01163282711,
730.013855,-0.01207776368,730.013855,-0.01198535785,730.013855,-0.01199981198,
729.0136108,-0.01218328811,729.0136108,-0.01224359125,729.0136108,-0.01230906881,
728.0130615,-0.01251469925,728.0130615,-0.01249915641,728.0130615,-0.01229764521,
727.012146,-0.01247858163,727.012146,-0.01249654032,727.012146,-0.0125327576,
726.0109253,-0.01267216448,726.0109253,-0.01247480884,726.0109253,-0.01250051428,
725.0092773,-0.01251651067,725.0092773,-0.01254437584,725.0092773,-0.01249382365,
724.0073853,-0.01241272688,724.0073853,-0.01241851225,724.0073853,-0.01226015016,
723.0050659,-0.01239390951,723.0050659,-0.01238817349,723.0050659,-0.01209855825,
722.0025635,-0.0123912422,722.0025635,-0.01218615752,722.0025635,-0.01239139307,
720.9995117,-0.01190532371,720.9995117,-0.0119702993,720.9995117,-0.01190759055,
719.9962158,-0.01156235673,719.9962158,-0.01159834955,719.9962158,-0.01140201744,
718.9926147,-0.0113764992,718.9926147,-0.01141608786,718.9926147,-0.01141407061,
717.9885864,-0.01099308673,717.9885864,-0.01084081922,717.9885864,-0.01101433765,
716.984314,-0.01062262338,716.984314,-0.010530564,716.984314,-0.01056219544,
716.015564,-0.01019080728,716.015564,-0.01015206799,716.015564,-0.01022878475,
715.0105591,-0.009728745557,715.0105591,-0.009718113579,715.0105591,-0.009716139175,
714.005249,-0.009332575835,714.005249,-0.009189405479,714.005249,-0.009042436257,
712.9995728,-0.00868527405,712.9995728,-0.008440706879,712.9995728,-0.008353567682,
711.9935913,-0.007545782719,711.9935913,-0.007613346446,711.9935913,-0.00775276497,
710.9873047,-0.007019770332,710.9873047,-0.007065208163,710.9873047,-0.00701462524,
710.0165405,-0.006668027025,710.0165405,-0.006582673173,710.0165405,-0.006638864055,
709.0095825,-0.005890450906,709.0095825,-0.006045382936,709.0095825,-0.005865576677,
708.0021973,-0.005393723026,708.0021973,-0.005236000288,708.0021973,-0.005583078135,
706.9946289,-0.004844924435,706.9946289,-0.004779642448,706.9946289,-0.004831152037,
705.9866333,-0.003926493227,705.9866333,-0.003803187516,705.9866333,-0.004152181093,
705.0142822,-0.00334136514,705.0142822,-0.003440559143,705.0142822,-0.003310950007,
704.0055542,-0.002892834134,704.0055542,-0.002870308002,704.0055542,-0.002789553953,
702.9966431,-0.001986907329,702.9966431,-0.001870318083,702.9966431,-0.001919957343,
701.9873657,-0.001226865221,701.9873657,-0.001544093713,701.9873657,-0.001424547401,
701.0137329,-0.001057447633,701.0137329,-0.001033689827,701.0137329,-0.0008310241392,
700.0037231,-0.0003234023752,700.0037231,-0.0003361803538,700.0037231,-0.0004133057373,
698.9934692,0.0004202030541,698.9934692,0.0004792064719,698.9934692,0.0004879656772,
697.9829102,0.001205758075,697.9829102,0.001036052243,697.9829102,0.001037064241,
697.0079956,0.001454324578,697.0079956,0.001664287411,697.0079956,0.001382385846,
695.9967651,0.002012370853,695.9967651,0.002378562232,695.9967651,0.002244668314,
694.9851685,0.00262248842,694.9851685,0.002552699298,694.9851685,0.002652178053,
694.0093994,0.002922213636,694.0093994,0.003175258869,694.0093994,0.003219538135,
692.9971313,0.00362524949,692.9971313,0.003672837745,692.9971313,0.00374288531,
691.9846191,0.003944553901,691.9846191,0.004165655468,691.9846191,0.004108736292,
691.0078125,0.004694671836,691.0078125,0.004383836873,691.0078125,0.004548499826,
689.9946289,0.004699225072,689.9946289,0.004959120881,689.9946289,0.004909820389,
689.017334,0.00524594821,689.017334,0.005801046733,689.017334,0.005516946316,
688.003418,0.005801598076,688.003418,0.005695441272,688.003418,0.005996193271,
686.9891968,0.006423870102,686.9891968,0.006056773011,686.9891968,0.0065098661,
686.0109863,0.006382782944,686.0109863,0.006926476024,686.0109863,0.006439134013,
684.9962158,0.006920531392,684.9962158,0.006594144274,684.9962158,0.006985501852,
684.017334,0.007452968974,684.017334,0.007349962369,684.017334,0.00687219156,
683.0018921,0.007510486059,683.0018921,0.007290176116,683.0018921,0.007474747952,
681.986084,0.007683163043,681.986084,0.007518993225,681.986084,0.007962620817,
681.0062866,0.007972955704,681.0062866,0.007937099785,681.0062866,0.008077534847,
679.9898682,0.008305553347,679.9898682,0.008191318251,679.9898682,0.008436156437,
679.0094604,0.008258008398,679.0094604,0.008361362852,679.0094604,0.008416994475,
677.9924316,0.008672734722,677.9924316,0.008599986322,677.9924316,0.008571339771,
677.0114136,0.008521732874,677.0114136,0.0087856967,677.0114136,0.008951006457,
675.9937744,0.009202539921,675.9937744,0.009395068511,675.9937744,0.009052675217,
675.012085,0.008990804665,675.012085,0.008962475695,675.012085,0.009262326173,
673.9938354,0.009199975058,673.9938354,0.009356635623,673.9938354,0.009646012448,
673.0116577,0.009595965035,673.0116577,0.009562541731,673.0116577,0.009555503726,
671.9926758,0.009550104849,671.9926758,0.009621053934,671.9926758,0.009771697223,
671.0098877,0.01012801193,671.0098877,0.009789621457,671.0098877,0.01013879571,
669.9902954,0.01003297791,669.9902954,0.01007624064,669.9902954,0.009861986153,
669.006897,0.009880311787,669.006897,0.009838499129,669.006897,0.00983195845,
667.9867554,0.009475093335,667.9867554,0.009387344122,667.9867554,0.009371923283,
667.0027466,0.009237257764,667.0027466,0.009092747234,667.0027466,0.00917485822,
665.9819946,0.008836733177,665.9819946,0.008526194841,665.9819946,0.008942815475,
664.9973145,0.008659081534,664.9973145,0.008679099381,664.9973145,0.008684037253,
664.0123901,0.008653641678,664.0123901,0.008856706321,664.0123901,0.008616699837,
662.9906616,0.008645905182,662.9906616,0.008511727676,662.9906616,0.008480763994,
662.005188,0.00849950593,662.005188,0.008566243574,662.005188,0.008417839184,
660.9828491,0.008299431764,660.9828491,0.008320302702,660.9828491,0.008404194377,
659.9967651,0.008427049965,659.9967651,0.008439243771,659.9967651,0.008362075314,
659.010376,0.00843203906,659.010376,0.008732579648,659.010376,0.008735379204,
657.9870605,0.008388676681,657.9870605,0.00861382205,657.9870605,0.00858335197,
657.0001831,0.008407493122,657.0001831,0.008462946862,657.0001831,0.008422536775,
656.0128784,0.008415753953,656.0128784,0.008471788839,656.0128784,0.008273918182,
654.9887695,0.008308191784,654.9887695,0.008229621686,654.9887695,0.008416149765,
654.0009155,0.008361970074,654.0009155,0.008414275944,654.0009155,0.00836075563,
653.0127563,0.008440432139,653.0127563,0.008339487016,653.0127563,0.008485779166,
651.9876709,0.008437027223,651.9876709,0.008458195254,651.9876709,0.008493460715,
650.9989624,0.008464925922,650.9989624,0.008506395854,650.9989624,0.008657392114,
650.0100098,0.008420848288,650.0100098,0.008414883167,650.0100098,0.008363737725,
648.9840088,0.008437844925,648.9840088,0.008537440561,648.9840088,0.008562996052,
647.9944458,0.008320013061,647.9944458,0.008178418502,647.9944458,0.008228012361,
647.0045776,0.008236665279,647.0045776,0.008378569037,647.0045776,0.008372472599,
646.0144043,0.008199442178,646.0144043,0.008322281763,646.0144043,0.008061105385,
644.9873047,0.008136769757,644.9873047,0.008315368555,644.9873047,0.008142809384,
643.99646,0.008225373924,643.99646,0.008126404136,643.99646,0.008039797656,
643.0054932,0.008018781431,643.0054932,0.008070651442,643.0054932,0.007961671799,
642.0142212,0.008073604666,642.0142212,0.008098764345,642.0142212,0.008180239238,
640.9858398,0.008013296872,640.9858398,0.007928637788,640.9858398,0.008073394187,
639.9940186,0.008096179925,639.9940186,0.008167814463,639.9940186,0.008248141967,
639.0018311,0.007927740924,639.0018311,0.007970635779,639.0018311,0.00825508032,
638.0094604,0.008169845678,638.0094604,0.007943533361,638.0094604,0.008152225986,
637.0166626,0.008243894204,637.0166626,0.008032968268,637.0166626,0.008083520457,
635.9868774,0.007985294797,635.9868774,0.008046390489,635.9868774,0.008159796707,
634.9935913,0.007783824112,634.9935913,0.00796815753,634.9935913,0.007812340278,
634.000061,0.008240807801,634.000061,0.00801116135,634.000061,0.007957690395,
633.0062256,0.007930430584,633.0062256,0.007938470691,633.0062256,0.008013851009,
632.012085,0.007847289555,632.012085,0.007829392329,632.012085,0.007878129371,
631.0176392,0.007628599647,631.0176392,0.007509169169,631.0176392,0.007581708953,
629.986145,0.007614189293,629.986145,0.007509748917,629.986145,0.00728591159,
628.9911499,0.007365864702,628.9911499,0.007276040036,628.9911499,0.00737592252,
627.9959106,0.007223186083,627.9959106,0.007094921079,627.9959106,0.007291071117,
627.0003662,0.007168496493,627.0003662,0.007223817986,627.0003662,0.00713033881,
626.0046387,0.006930920761,626.0046387,0.007041562814,626.0046387,0.007073003333,
625.0085449,0.007021226455,625.0085449,0.007123339456,625.0085449,0.007092500106,
624.012207,0.006949885283,624.012207,0.007024173159,624.012207,0.006772241089,
623.015564,0.006923240609,623.015564,0.006764774211,623.015564,0.006831193808,
621.9817505,0.006856886204,621.9817505,0.006796326023,621.9817505,0.00683166692,
620.9845581,0.00683008926,620.9845581,0.006842895877,620.9845581,0.006737431046,
619.9871826,0.006445492152,619.9871826,0.006694316398,619.9871826,0.006741795223,
618.9893799,0.006804740522,618.9893799,0.006593697239,618.9893799,0.006490158848,
617.9914551,0.006518221926,617.9914551,0.006445019506,617.9914551,0.006623291876,
616.9931641,0.006319610402,616.9931641,0.006458655465,616.9931641,0.006427443121,
615.9946289,0.006259676535,615.9946289,0.006372065283,615.9946289,0.006452612113,
614.9957886,0.006345745176,614.9957886,0.00629221648,614.9957886,0.006132010836,
613.9967041,0.006094810087,613.9967041,0.006126681343,613.9967041,0.006149548572,
612.9974365,0.006066354457,612.9974365,0.006188381929,612.9974365,0.006147421896,
611.9976807,0.005980734713,611.9976807,0.006082183216,611.9976807,0.006034933962,
610.9979248,0.005953047425,610.9979248,0.006027453579,610.9979248,0.005888178945,
609.9976807,0.005949793383,609.9976807,0.006052021869,609.9976807,0.006147028413,
608.9973145,0.006117361132,608.9973145,0.006144875195,608.9973145,0.006148078479,
607.996582,0.006161836442,607.996582,0.005951813888,607.996582,0.005840425845,
606.9956665,0.005759048276,606.9956665,0.005865246523,606.9956665,0.005747086834,
605.9944458,0.005620672833,605.9944458,0.005639816169,605.9944458,0.005762038752,
604.9929199,0.005631031003,604.9929199,0.005638137925,604.9929199,0.005677056033,
603.9911499,0.005413926207,603.9911499,0.005629457533,603.9911499,0.005460636225,
602.9891968,0.005382133648,602.9891968,0.005500980653,602.9891968,0.005360800307,
601.9868774,0.005231538322,601.9868774,0.005120727699,601.9868774,0.005149200093,
600.984314,0.005068371072,600.984314,0.005078899208,600.984314,0.004956345074,
599.9815063,0.005029742606,599.9815063,0.005077982787,599.9815063,0.005172671285,
599.015564,0.004810687155,599.015564,0.004849086516,599.015564,0.004897410981,
598.0122681,0.004768548533,598.0122681,0.004851625767,598.0122681,0.004653957207,
597.008667,0.004712963011,597.008667,0.004788963124,597.008667,0.004792470019,
596.0048218,0.0045081391,596.0048218,0.004601683002,596.0048218,0.004672456533,
595.0006714,0.004534374457,595.0006714,0.004584102891,595.0006714,0.004399866331,
593.9963989,0.004264772404,593.9963989,0.004349034745,593.9963989,0.004296509549,
592.9916992,0.00413353648,592.9916992,0.004372749943,592.9916992,0.004181729164,
591.9868164,0.004192863591,591.9868164,0.004192497581,591.9868164,0.004087230191,
590.9816284,0.004046886228,590.9816284,0.004009367432,590.9816284,0.003864914645,
590.0134888,0.003859508317,590.0134888,0.003946983255,590.0134888,0.003846658859,
589.0078125,0.003762259381,589.0078125,0.003850184614,589.0078125,0.003866586136,
588.0018921,0.003875649069,588.0018921,0.003724190872,588.0018921,0.003802054562,
586.9956665,0.003541806247,586.9956665,0.003540553618,586.9956665,0.003537995974,
585.9891968,0.003499164479,585.9891968,0.003506862558,585.9891968,0.003328795079,
584.9825439,0.003444158705,584.9825439,0.003253441537,584.9825439,0.003270863788,
584.0128784,0.003094326705,584.0128784,0.003241027473,584.0128784,0.003154659411,
583.0056763,0.00305816764,583.0056763,0.003168244613,583.0056763,0.003174580866,
581.9981689,0.002897248138,581.9981689,0.002933159238,581.9981689,0.003087026998,
580.9904785,0.002859177301,580.9904785,0.002895189449,580.9904785,0.002801100258,
579.9824829,0.002524839016,579.9824829,0.002736857161,579.9824829,0.002647776622,
579.0115967,0.002409927314,579.0115967,0.002502395771,579.0115967,0.002519371221,
578.0031738,0.002095598727,578.0031738,0.00212707324,578.0031738,0.002171453787,
576.9944458,0.001943875919,576.9944458,0.002039548242,576.9944458,0.001938883564,
575.9854126,0.001789528877,575.9854126,0.001808296191,575.9854126,0.001800497994,
575.0136108,0.001829351764,575.0136108,0.001798860496,575.0136108,0.00175581756,
574.0041504,0.001455025747,574.0041504,0.001543758088,574.0041504,0.00148338906,
572.9943848,0.001404901152,572.9943848,0.001255158801,572.9943848,0.001233404153,
571.984436,0.001129552256,571.984436,0.001377192209,571.984436,0.001263674116,
571.0115967,0.001051050378,571.0115967,0.001062675496,571.0115967,0.0009911649395,
570.0011597,0.0007271498907,570.0011597,0.0008273783606,570.0011597,0.0006862093578,
568.9904175,0.0004528262652,568.9904175,0.0004264994932,568.9904175,0.0006517279544,
568.0169067,0.0003868309432,568.0169067,0.0003484872577,568.0169067,0.0003983087954,
567.0056763,0.0001435873128,567.0056763,9.920635785E-005,567.0056763,0.0001141980174,
565.9942017,0.0001337475114,565.9942017,-1.035438615E-007,565.9942017,5.850622983E-005,
564.9824829,-0.0002849627635,564.9824829,-0.000229806581,564.9824829,-0.0003616834292,
564.0080566,-0.0003915816487,564.0080566,-0.0003842883452,564.0080566,-0.0004349770024,
562.9957886,-0.0005356126931,562.9957886,-0.0005436273641,562.9957886,-0.000652767485,
561.9833984,-0.0007721646107,561.9833984,-0.0008021896356,561.9833984,-0.000730766973,
561.0081787,-0.0008750989218,561.0081787,-0.0009931952227,561.0081787,-0.0009369924664,
559.9953003,-0.0008961788262,559.9953003,-0.001026923768,559.9953003,-0.001131863217,
558.9820557,-0.001170021482,558.9820557,-0.001190467505,558.9820557,-0.001273997128,
558.0062256,-0.001254742383,558.0062256,-0.001230530674,558.0062256,-0.001339498325,
556.9924927,-0.001144101028,556.9924927,-0.001222580322,556.9924927,-0.001257271855,
556.0161743,-0.001240804093,556.0161743,-0.001372890314,556.0161743,-0.001260317513,
555.0020752,-0.001443846268,555.0020752,-0.00139564916,555.0020752,-0.00128984428,
553.9876709,-0.001493070042,553.9876709,-0.00152046571,553.9876709,-0.001686917967,
553.0106201,-0.00146789127,553.0106201,-0.001586703467,553.0106201,-0.001539657125,
551.9957886,-0.001592635526,551.9957886,-0.001595420996,551.9957886,-0.001725955633,
551.0183105,-0.001797472592,551.0183105,-0.001818610937,551.0183105,-0.001752769458,
550.0029907,-0.001827736152,550.0029907,-0.001838046941,550.0029907,-0.001758389757,
548.9873657,-0.00182649889,548.9873657,-0.001790666836,548.9873657,-0.001795564895,
548.0091553,-0.001657521352,548.0091553,-0.001773239579,548.0091553,-0.001741528395,
546.993103,-0.001509992639,546.993103,-0.001538780052,546.993103,-0.001558538177,
546.0145264,-0.001357665518,546.0145264,-0.001472792937,546.0145264,-0.001462576678,
544.9979858,-0.001367265009,544.9979858,-0.001319162548,544.9979858,-0.001369122881,
543.9812012,-0.001093082014,543.9812012,-0.001140073524,543.9812012,-0.001143687987,
543.0018921,-0.0008948871982,543.0018921,-0.0009757359512,543.0018921,-0.0009473243845,
541.9846191,-0.0006161664496,541.9846191,-0.0007326793275,541.9846191,-0.0006990829716,
541.0048218,-0.000203157324,541.0048218,-0.0002952585055,541.0048218,-0.0002143346937,
539.9872437,-5.477125524E-005,539.9872437,-9.84073049E-005,539.9872437,-0.00012501124,
539.006958,0.0001481706713,539.006958,7.673278742E-005,539.006958,0.0001385638025,
537.9888306,0.0003426582844,537.9888306,0.0002961587743,537.9888306,0.0003749388561,
537.0081177,0.0008056710358,537.0081177,0.0006851982325,537.0081177,0.0006906169583,
535.9894409,0.001198541839,535.9894409,0.001105961273,535.9894409,0.001055902801,
535.0083618,0.001331075095,535.0083618,0.001398798195,535.0083618,0.001323051867,
533.9892578,0.001734843361,533.9892578,0.001691598911,533.9892578,0.001649372047,
533.0076904,0.002247088123,533.0076904,0.002233713865,533.0076904,0.002118749078,
531.9882202,0.00246381294,531.9882202,0.002477011876,531.9882202,0.002513955813,
531.0061646,0.002845549723,531.0061646,0.002786484547,531.0061646,0.002710573841,
529.986145,0.003240636084,529.986145,0.003181360662,529.986145,0.003209367627,
529.0036621,0.003913286608,529.0036621,0.003860004479,529.0036621,0.003838824108,
527.9832764,0.004473457579,527.9832764,0.004327464383,527.9832764,0.004404861014,
527.0003662,0.004637447651,527.0003662,0.004546877928,527.0003662,0.004476020578,
526.0172729,0.004879583139,526.0172729,0.004811838735,526.0172729,0.004790349863,
524.9961548,0.005199890118,524.9961548,0.005156692117,524.9961548,0.005187446252,
524.0125732,0.005495055579,524.0125732,0.005453401245,524.0125732,0.005414423998,
522.9909668,0.005791497882,522.9909668,0.005666303448,522.9909668,0.005690012593,
522.0070801,0.005961130373,522.0070801,0.005882642698,522.0070801,0.005865718704,
520.9849854,0.006250616629,520.9849854,0.006215874106,520.9849854,0.006182998884,
520.0006104,0.006502560806,520.0006104,0.006592803635,520.0006104,0.00649772631,
519.0159912,0.006858542562,519.0159912,0.006821490359,519.0159912,0.006751680747,
517.9932861,0.007225660607,517.9932861,0.007333876565,517.9932861,0.007158864755,
517.0082397,0.007376027759,517.0082397,0.007247848902,517.0082397,0.007280909922,
515.9851074,0.007616007235,515.9851074,0.007557237986,515.9851074,0.007444015238,
514.9996338,0.00778292818,514.9996338,0.007713411469,514.9996338,0.007818639278,
514.0139771,0.007891125046,514.0139771,0.007884113118,514.0139771,0.007769988384,
512.9901123,0.008028722368,512.9901123,0.008052350022,512.9901123,0.007958375849,
512.0039673,0.008307453245,512.0039673,0.008229041472,512.0039673,0.008205747232,
511.0176392,0.008369939402,511.0176392,0.00835239049,511.0176392,0.008374953642,
509.9931946,0.008426127024,509.9931946,0.008503913879,509.9931946,0.008476302959,
509.0064392,0.008539604954,509.0064392,0.008555788547,509.0064392,0.008606587537,
507.9815369,0.008659821004,507.9815369,0.008637586609,507.9815369,0.008623670787,
506.9943542,0.008738337085,506.9943542,0.008583960123,506.9943542,0.008627763949,
506.007019,0.008732182905,506.007019,0.008678227663,506.007019,0.008659160696,
504.9814148,0.008798217401,504.9814148,0.008629850112,504.9814148,0.008663016371,
503.9936523,0.008725474589,503.9936523,0.008621637709,503.9936523,0.008733979426,
503.0055847,0.008846455254,503.0055847,0.008784878068,503.0055847,0.008750989102,
502.0173645,0.008772674017,502.0173645,0.008731205948,502.0173645,0.008781391196,
500.9910278,0.008726134896,500.9910278,0.008757592179,500.9910278,0.008666000329,
500.0023499,0.008550904691,500.0023499,0.008541954681,500.0023499,0.008569306694,
499.0135498,0.008416730911,499.0135498,0.008555578068,499.0135498,0.008418023586,
497.9864807,0.008133552037,497.9864807,0.008190104738,497.9864807,0.008278218098,
496.9972534,0.008105093613,496.9972534,0.008103142492,496.9972534,0.008067803457,
496.0078125,0.0079363361,496.0078125,0.007910236716,496.0078125,0.00797031913,
495.018219,0.007724373136,495.018219,0.007789331954,495.018219,0.007679843344,
493.9902039,0.007618588861,493.9902039,0.007398434449,493.9902039,0.007432376035,
493.0001526,0.007291571237,493.0001526,0.007322371937,493.0001526,0.007324688602,
492.0098572,0.007311156951,492.0098572,0.007273276336,492.0098572,0.007332086097,
490.9813843,0.007341800723,490.9813843,0.007273249794,490.9813843,0.007276935037,
489.9907227,0.006973164622,489.9907227,0.00687589962,489.9907227,0.006903462112,
488.9998474,0.006796142086,488.9998474,0.00676937541,488.9998474,0.006809289567,
488.0087585,0.006873559207,488.0087585,0.006842895877,488.0087585,0.006837899331,
487.0175476,0.006929132156,487.0175476,0.006926370785,487.0175476,0.00685875304,
485.9879456,0.00673162099,485.9879456,0.006669422146,485.9879456,0.0066538346,
484.9963074,0.006535118911,484.9963074,0.006540295668,484.9963074,0.006437531672,
484.0044556,0.006897517946,484.0044556,0.006871166173,484.0044556,0.006870797835,
483.0123596,0.007136522792,483.0123596,0.007094131783,483.0123596,0.007075766101,
481.9819946,0.007022752427,481.9819946,0.007000996266,481.9819946,0.006969219074,
480.989502,0.007098868024,480.989502,0.007066557184,480.989502,0.00709460536,
479.9967957,0.007387007121,479.9967957,0.007229634561,479.9967957,0.007225739304,
479.0039368,0.007539458573,479.0039368,0.00762491161,479.0039368,0.007504560519,
478.0109558,0.007860415615,478.0109558,0.007879631594,478.0109558,0.007821775973,
477.0176697,0.008182375692,477.0176697,0.008157975972,477.0176697,0.008149166591,
475.9860229,0.008752547204,475.9860229,0.008614033461,475.9860229,0.008645666763,
474.9924316,0.009236728773,474.9924316,0.009139034897,474.9924316,0.009135756642,
473.9985657,0.009730027989,473.9985657,0.009770479053,473.9985657,0.009756924585,
473.0045166,0.01022876427,473.0045166,0.01026425324,473.0045166,0.01030865125,
472.0103455,0.01071451511,472.0103455,0.01063866541,472.0103455,0.01068819594,
471.0158691,0.01121308282,471.0158691,0.01124910358,471.0158691,0.01106913481,
469.9830933,0.0117074633,469.9830933,0.01165385451,469.9830933,0.01166627184,
468.9882813,0.01216974016,468.9882813,0.01214924268,468.9882813,0.0121108843,
467.9932861,0.01268256176,467.9932861,0.01266755629,467.9932861,0.01259304397,
466.9981384,0.01317357551,466.9981384,0.01311463676,466.9981384,0.01317805797,
466.0027466,0.0135097811,466.0027466,0.01351330522,466.0027466,0.01345584262,
465.0072021,0.01391629688,465.0072021,0.01395837031,465.0072021,0.01401664875,
464.0114136,0.01423874032,464.0114136,0.01441285573,464.0114136,0.01437068451,
463.0155029,0.014697643,463.0155029,0.01458455157,463.0155029,0.01472551841,
461.9810181,0.01506751031,461.9810181,0.01505837217,461.9810181,0.01504990365,
460.9847107,0.0154126687,460.9847107,0.01532360446,460.9847107,0.01533599384,
459.9881897,0.01576363109,459.9881897,0.0156876985,459.9881897,0.01573627815,
458.9915466,0.01611571014,458.9915466,0.01612022333,458.9915466,0.01614668593,
457.9945984,0.01635419764,457.9945984,0.01633460447,457.9945984,0.0162869785,
456.9975281,0.01651641913,456.9975281,0.01657600887,456.9975281,0.01657729968,
456.0002747,0.01674899273,456.0002747,0.01669233665,456.0002747,0.01668970101,
455.0028076,0.01692645997,455.0028076,0.01684860326,455.0028076,0.01686248742,
454.005188,0.01694696955,454.005188,0.01702295989,454.005188,0.01699622907,
453.0073853,0.01716380566,453.0073853,0.01713512652,453.0073853,0.0171445515,
452.0093994,0.01743444987,452.0093994,0.01731655002,452.0093994,0.01734265499,
451.0112,0.01739128493,451.0112,0.01733928733,451.0112,0.0174585674,
450.0128174,0.0175702814,450.0128174,0.01747107133,450.0128174,0.01747430675,
449.0143127,0.01755931042,449.0143127,0.01754658855,449.0143127,0.01757448539,
448.0155945,0.01774101891,448.0155945,0.01768172532,448.0155945,0.01774600707,
447.0166626,0.0178745985,447.0166626,0.01792563498,447.0166626,0.01786842197,
446.0175171,0.01799605042,446.0175171,0.01804688573,446.0175171,0.0179693941,
445.0182495,0.01804445684,445.0182495,0.01798193902,445.0182495,0.01794487052,
444.0188293,0.01788719557,444.0188293,0.01786974259,444.0188293,0.01793043688,
443.0191345,0.01777370274,443.0191345,0.01775617339,443.0191345,0.01775490679,
441.980896,0.01763034053,441.980896,0.01768760383,441.980896,0.01764495112,
440.980896,0.01770709828,440.980896,0.01762219891,440.980896,0.01762192883,
440.0191956,0.01763780788,440.0191956,0.01767857186,440.0191956,0.01764465496,
439.0187988,0.01749845222,439.0187988,0.01754648052,439.0187988,0.01744043268,
438.01828,0.01742181368,438.01828,0.01731760055,438.01828,0.01728110015,
437.0175476,0.01715230756,437.0175476,0.01712457091,437.0175476,0.01706676185,
436.0166321,0.01693789847,436.0166321,0.0169430133,436.0166321,0.01697781682,
435.015564,0.01681905612,435.015564,0.01677759364,435.015564,0.01679252647,
434.0143433,0.01680011302,434.0143433,0.01686488278,434.0143433,0.01675149612,
433.0129395,0.01667084545,433.0129395,0.01672192849,433.0129395,0.01666035503,
432.0112915,0.01656431146,432.0112915,0.01670360938,432.0112915,0.0165580716,
431.009491,0.0164112132,431.009491,0.01649488136,431.009491,0.01642159,
430.0075684,0.01640123874,430.0075684,0.01647963561,430.0075684,0.01633471064,
429.0054321,0.01624301262,429.0054321,0.01627902314,429.0054321,0.01629020274,
428.0031128,0.01619437709,428.0031128,0.01614464447,428.0031128,0.01615106501,
427.0006409,0.01605698839,427.0006409,0.01594257541,427.0006409,0.01601334102,
425.9980164,0.01594714075,425.9980164,0.01590976119,425.9980164,0.01606491208,
424.9951477,0.01587982289,424.9951477,0.01587472111,424.9951477,0.01587665454,
423.992157,0.01576593891,423.992157,0.01584333368,423.992157,0.01583093032,
422.9889832,0.01563271135,422.9889832,0.01558615547,422.9889832,0.01554982644,
421.9856567,0.01548372395,421.9856567,0.01552141551,421.9856567,0.01555505861,
420.9821167,0.01548790839,420.9821167,0.01552680787,420.9821167,0.01550330687,
420.0170593,0.01552460808,420.0170593,0.01547980681,420.0170593,0.01549330074,
419.0131531,0.01522337925,419.0131531,0.01528794132,419.0131531,0.01535554323,
418.0091858,0.01528247166,418.0091858,0.01522533689,418.0091858,0.01522764191,
417.0049133,0.01503623649,417.0049133,0.01509634778,417.0049133,0.01507573854,
416.0006104,0.0147864446,416.0006104,0.01481071021,416.0006104,0.01470313221,
414.9960327,0.01471030898,414.9960327,0.01468612906,414.9960327,0.01464259252,
413.991394,0.01459718682,413.991394,0.01456509065,413.991394,0.01465643477,
412.9864807,0.01451463345,412.9864807,0.01451142225,412.9864807,0.01437231712,
411.9814453,0.0143220704,411.9814453,0.01434679143,411.9814453,0.01435794868,
411.0149231,0.01437154133,411.0149231,0.01433234382,411.0149231,0.01434523985,
410.009552,0.01437670551,410.009552,0.0142901279,410.009552,0.01424660441,
409.0039673,0.01420404855,409.0039673,0.01426832564,409.0039673,0.01422408223,
407.998291,0.01410536468,407.998291,0.01411295868,407.998291,0.01408116519,
406.9924316,0.0140767796,406.9924316,0.01405421272,406.9924316,0.01413133088,
405.9863892,0.01411162224,405.9863892,0.01418455038,405.9863892,0.01410827972,
405.0188904,0.01431754883,405.0188904,0.01433740091,405.0188904,0.01432966813,
404.0125427,0.01454637945,404.0125427,0.01446035597,404.0125427,0.0144859422,
403.0060425,0.01448190026,403.0060425,0.01445018686,403.0060425,0.01456321683,
401.9992981,0.01465742569,401.9992981,0.014668216,401.9992981,0.01458773762,
400.9924316,0.01475369092,400.9924316,0.01473987196,400.9924316,0.01479064953,
399.9854431,0.01497551613,399.9854431,0.01490221359,399.9854431,0.01494569611,
399.0169983,0.01516137365,399.0169983,0.01504167635,399.0169983,0.01514427178,
398.0096741,0.01529523451,398.0096741,0.01533856802,398.0096741,0.01525442582,
397.0021973,0.01550792065,397.0021973,0.0155539047,397.0021973,0.01534588914,
395.9945374,0.01569719985,395.9945374,0.01564218476,395.9945374,0.01566663198,
394.9867249,0.01594394445,394.9867249,0.01594762318,394.9867249,0.01590307429,
394.0174866,0.01626031846,394.0174866,0.0162772499,394.0174866,0.01625325158,
393.0093384,0.01658208668,393.0093384,0.01656057313,393.0093384,0.01653080434,
392.0010681,0.01705093123,392.0010681,0.01688888855,392.0010681,0.01688980311,
390.9925842,0.01738314703,390.9925842,0.01729335636,390.9925842,0.01725211553,
389.9839478,0.01734769158,389.9839478,0.01734599471,389.9839478,0.01721335948,
389.0140076,0.01750481315,389.0140076,0.01743388548,389.0140076,0.01745172404,
388.0050964,0.01761446148,388.0050964,0.01763982885,388.0050964,0.01765956357,
386.9960022,0.01792326197,386.9960022,0.01797864772,386.9960022,0.01796143502,
385.9867859,0.01805290394,385.9867859,0.0181528125,385.9867859,0.01809861884,
385.0162048,0.01845605299,385.0162048,0.01839174703,385.0162048,0.01839145087,
384.0066223,0.01880224049,384.0066223,0.0187535584,384.0066223,0.01879267022,
382.9969177,0.01904964633,382.9969177,0.0188975893,382.9969177,0.01892227493,
381.9870605,0.01917015575,381.9870605,0.01919905096,381.9870605,0.01918541454,
381.0158997,0.01957355998,381.0158997,0.01952552237,381.0158997,0.01953941397,
380.0057373,0.02008021064,380.0057373,0.02002756484,380.0057373,0.0199760627,
378.9954224,0.02069519646,378.9954224,0.02055274136,378.9954224,0.02054869756,
377.9848938,0.02128490061,377.9848938,0.02126709558,377.9848938,0.02120960131,
377.0131836,0.02187309414,377.0131836,0.02177600004,377.0131836,0.0218236316,
376.0024109,0.02199425362,376.0024109,0.02207627892,376.0024109,0.02195637673,
374.9914551,0.02247625776,374.9914551,0.02238524333,374.9914551,0.02236117795,
374.0192566,0.02288386412,374.0192566,0.02296188287,374.0192566,0.0229259152,
373.0080261,0.0234783534,373.0080261,0.02337549068,373.0080261,0.02331345715,
371.9966431,0.0242076125,371.9966431,0.02420317754,371.9966431,0.02411171794,
370.9851074,0.02469049208,370.9851074,0.02466312051,370.9851074,0.0248313807,
370.0123596,0.02520606108,370.0123596,0.02513841726,370.0123596,0.02497864701,
369.0005188,0.02531569637,369.0005188,0.02545310929,369.0005188,0.02564647049,
367.9885559,0.0259178672,367.9885559,0.02588420734,367.9885559,0.02597051673,
367.0153503,0.0265265964,367.0153503,0.02636109106,367.0153503,0.02631188557,
366.0030518,0.0268577449,366.0030518,0.02682627179,366.0030518,0.02680501528,
364.9906311,0.02726799808,364.9906311,0.02731485851,364.9906311,0.02728944272,
364.0169983,0.02752645314,364.0169983,0.02756178565,364.0169983,0.02757659741,
363.0043335,0.02808784507,363.0043335,0.02809941582,363.0043335,0.02801121771,
361.9914246,0.0285188593,361.9914246,0.02856449969,361.9914246,0.02853782289,
361.0173645,0.02874445543,361.0173645,0.02870142274,361.0173645,0.02863497473,
360.0042419,0.028594248,360.0042419,0.02854476124,360.0042419,0.02853309549,
358.9909363,0.02865399793,358.9909363,0.02885144763,358.9909363,0.02872974239,
358.0164795,0.02909678593,358.0164795,0.02916136757,358.0164795,0.0291453395,
357.0028992,0.02912961505,357.0028992,0.0289538987,357.0028992,0.02922288515,
355.9891663,0.02901854366,355.9891663,0.02919852175,355.9891663,0.02904702164,
355.0142822,0.0291252695,355.0142822,0.02914619818,355.0142822,0.02932996675,
354.0002747,0.02936057001,354.0002747,0.02925384231,354.0002747,0.02932999469,
352.9861145,0.02931348979,352.9861145,0.02929039299,352.9861145,0.02928460576,
352.0108032,0.02924323641,352.0108032,0.02900484391,352.0108032,0.02929692902,
350.9963989,0.02923819795,350.9963989,0.02929427102,350.9963989,0.02918227017,
349.9818115,0.02913888916,349.9818115,0.02928601764,349.9818115,0.02933198959,
349.0061035,0.02936580591,349.0061035,0.02929211035,349.0061035,0.02920560911,
347.9912109,0.02938757651,347.9912109,0.02928618342,347.9912109,0.02941427752,
347.0152588,0.02950517088,347.0152588,0.02940394543,347.0152588,0.02928718179,
346.0001526,0.0294932574,346.0001526,0.02946572006,346.0001526,0.02963546291,
344.9848328,0.02973352559,344.9848328,0.02951096185,344.9848328,0.02957122587,
344.0084839,0.02959802188,344.0084839,0.02978331409,344.0084839,0.02969377674,
342.9929199,0.02946322598,342.9929199,0.02929978073,342.9929199,0.0293810945,
342.0163269,0.02933747321,342.0163269,0.02947605215,342.0163269,0.02939449996,
341.0004883,0.02948015369,341.0004883,0.02944333665,341.0004883,0.02947646752,
339.9845276,0.02948347665,339.9845276,0.02958474867,339.9845276,0.02964676917,
339.0074768,0.02969862707,339.0074768,0.02967872657,339.0074768,0.02957962267,
337.9912415,0.02977926657,337.9912415,0.02973294444,337.9912415,0.02964283526,
337.0139465,0.0296826344,337.0139465,0.02978317626,337.0139465,0.02984830365,
335.9974365,0.03000130318,335.9974365,0.02993057854,335.9974365,0.03004784882,
334.9808044,0.03006979264,334.9808044,0.03003861196,334.9808044,0.03014062345,
334.0031128,0.03020055965,334.0031128,0.03021992929,334.0031128,0.03026472218,
332.9861755,0.03030371852,332.9861755,0.03035657108,332.9861755,0.03041575849,
332.0082703,0.03034727089,332.0082703,0.03032284416,332.0082703,0.03025930934,
330.9911194,0.03062645532,330.9911194,0.03051602654,330.9911194,0.03053774312,
330.0129089,0.03079790249,330.0129089,0.03051908128,330.0129089,0.03062089905,
328.9954529,0.03118322045,328.9954529,0.03098990768,328.9954529,0.03104973771,
328.0170288,0.03121896088,328.0170288,0.03123893216,328.0170288,0.03114873357,
326.9993286,0.03151473776,326.9993286,0.03150675073,326.9993286,0.03141741082,
325.9814758,0.03208022565,325.9814758,0.03184762225,325.9814758,0.03191356361,
325.002655,0.03249454871,325.002655,0.03216654807,325.002655,0.03226211667,
323.9845581,0.03305257112,323.9845581,0.03300251812,323.9845581,0.03294180334,
323.0054932,0.0331860818,323.0054932,0.0331617184,323.0054932,0.0330385752,
321.9871216,0.03338160738,321.9871216,0.03359947726,321.9871216,0.03343080729,
321.007782,0.03391370177,321.007782,0.0338951461,321.007782,0.03373948112,
319.9891663,0.03455045819,319.9891663,0.03445298225,319.9891663,0.034284316,
319.009613,0.03506482393,319.009613,0.03503084183,319.009613,0.03504004329,
317.9907837,0.03541035578,317.9907837,0.03552189469,317.9907837,0.03556299582,
317.0109253,0.036068663,317.0109253,0.03599176928,317.0109253,0.03607707098,
315.9918213,0.03672565892,315.9918213,0.03663386032,315.9918213,0.03661639988,
315.0117493,0.03750472516,315.0117493,0.0373233892,315.0117493,0.03733354434,
313.9924011,0.03776085004,313.9924011,0.03762041777,313.9924011,0.03769692406,
313.0121155,0.03801590949,313.0121155,0.03789635375,313.0121155,0.03797353059,
311.9924622,0.03828276321,311.9924622,0.03822402284,311.9924622,0.03831937909,
311.0119324,0.03877802193,311.0119324,0.03882987797,311.0119324,0.03877046704,
309.9920654,0.0393069163,309.9920654,0.03927506506,309.9920654,0.03924839944,
309.0112915,0.03979293257,309.0112915,0.03967189416,309.0112915,0.03962563723,
307.9911499,0.04000328854,307.9911499,0.04019744694,307.9911499,0.04002687708,
307.0101624,0.04022607207,307.0101624,0.04030957073,307.0101624,0.04022059217,
305.9897461,0.04051582888,305.9897461,0.04043439403,305.9897461,0.04033402726,
305.0085449,0.04044507816,305.0085449,0.04040297121,305.0085449,0.04046695307,
303.987915,0.04070245475,303.987915,0.04057255387,303.987915,0.04057764262,
303.0064392,0.04109530151,303.0064392,0.04098917544,303.0064392,0.04097594693,
301.9855652,0.04130113497,301.9855652,0.04116140679,301.9855652,0.04127198458,
301.0038452,0.04135628417,301.0038452,0.04132268578,301.0038452,0.04127708077,
299.9827881,0.04160298035,299.9827881,0.0414689891,299.9827881,0.04139791057,
299.0008545,0.04177377373,299.0008545,0.04176619276,299.0008545,0.04193265736,
298.0187683,0.04201303422,298.0187683,0.04211883992,298.0187683,0.04200667515,
296.9973145,0.04238740355,296.9973145,0.04240977764,296.9973145,0.04230296239,
296.0150452,0.04252898321,296.0150452,0.04253894836,296.0150452,0.04256395623,
294.9933472,0.04289950803,294.9933472,0.04284673557,294.9933472,0.04279917106,
294.0108337,0.04316961393,294.0108337,0.04296289012,294.0108337,0.04295457527,
292.9888916,0.04290939495,292.9888916,0.0428551659,292.9888916,0.04269919917,
292.0061646,0.04270808026,292.0061646,0.04269462824,292.0061646,0.04270770773,
290.9840393,0.04210281,290.9840393,0.0421538651,290.9840393,0.04209168628,
290.0010681,0.0421481058,290.0010681,0.04219408706,290.0010681,0.04211484641,
289.0180054,0.04307815805,289.0180054,0.04301233217,289.0180054,0.04288993776,
287.9954834,0.04403172433,287.9954834,0.04409154505,287.9954834,0.04389474913,
287.0121765,0.04504400864,287.0121765,0.04498414323,287.0121765,0.04500794411,
285.9894104,0.04596469551,285.9894104,0.04596026614,285.9894104,0.04591569304,
285.0059204,0.0470813401,285.0059204,0.04697085917,285.0059204,0.04690046236,
283.9829712,0.04844826832,283.9829712,0.0483215563,283.9829712,0.04835418984,
282.9992676,0.04975097254,282.9992676,0.04975793883,282.9992676,0.04969741777,
282.0154114,0.05087778345,282.0154114,0.05080474168,282.0154114,0.05068036169,
280.9920654,0.05138383806,280.9920654,0.0513077639,280.9920654,0.05129669607,
280.0080566,0.05211185664,280.0080566,0.05195431039,280.0080566,0.05185932294,
278.9845276,0.05279286578,278.9845276,0.0527032502,278.9845276,0.05269839615,
278.0002747,0.05367439985,278.0002747,0.05362413824,278.0002747,0.0535415262,
277.0158997,0.05445606634,277.0158997,0.05439318717,277.0158997,0.05422384292,
275.9920044,0.05518473312,275.9920044,0.05522871017,275.9920044,0.0551805906,
275.0074463,0.05613276362,275.0074463,0.05607332289,275.0074463,0.05598818138,
273.9833679,0.05714350939,273.9833679,0.05688130856,273.9833679,0.05688629299,
272.9985657,0.05745754391,272.9985657,0.05736536533,272.9985657,0.05743125081,
272.0137024,0.05757767335,272.0137024,0.05761296302,272.0137024,0.05767997727,
270.9892883,0.05755423754,270.9892883,0.05738265067,270.9892883,0.0572572872,
270.0041504,0.0567475073,270.0041504,0.05666665733,270.0041504,0.05643896386,
269.0189514,0.05613629892,269.0189514,0.05620508641,269.0189514,0.05602852628,
267.9942322,0.05572479218,267.9942322,0.05576402321,267.9942322,0.05569992214,
267.0088196,0.05568303168,267.0088196,0.05545526743,267.0088196,0.05549453199,
265.9838867,0.05550571159,265.9838867,0.05541267991,265.9838867,0.05531393737,
264.9982605,0.05583846569,264.9982605,0.05563465506,264.9982605,0.05563656986,
264.0125427,0.05605570972,264.0125427,0.05592404678,264.0125427,0.05592722818,
262.9872742,0.05634334683,262.9872742,0.05631166697,262.9872742,0.05624082685,
262.0013733,0.05724136904,262.0013733,0.05712836236,262.0013733,0.05700499564,
261.0153198,0.05811364204,261.0153198,0.05801895633,261.0153198,0.05791518465,
259.9897766,0.05847239122,259.9897766,0.05838251114,259.9897766,0.05839456245,
259.00354,0.05870876461,259.00354,0.05874243006,259.00354,0.05856912956,
258.0172424,0.05909377709,258.0172424,0.0591308251,258.0172424,0.059109319,
256.9913635,0.05987231433,256.9913635,0.05975042284,256.9913635,0.05975529552,
256.0048523,0.06076879799,256.0048523,0.06042359024,256.0048523,0.06045259908,
255.0182037,0.06142142415,255.0182037,0.06156141311,255.0182037,0.06146850809,
253.9920349,0.06247840449,253.9920349,0.06235198304,253.9920349,0.06238679588,
253.0052643,0.06292236596,253.0052643,0.06297876686,253.0052643,0.06291497499,
252.0183411,0.0635631606,252.0183411,0.06356669962,252.0183411,0.06360652298,
250.9918518,0.0646430999,250.9918518,0.06464039534,250.9918518,0.06463546306,
250.0047607,0.06610546261,250.0047607,0.06603117287,250.0047607,0.06602243334,
249.0175476,0.06722344458,249.0175476,0.06722411513,249.0175476,0.06725306064,
247.9907837,0.06837306917,247.9907837,0.06845291704,247.9907837,0.06846237183,
247.0034027,0.06922550499,247.0034027,0.0693821907,247.0034027,0.06930921227,
246.0159149,0.0706589371,246.0159149,0.07071556896,246.0159149,0.07053477317,
244.9888458,0.07283312082,244.9888458,0.07276302576,244.9888458,0.0728122741,
244.0011749,0.07447680831,244.0011749,0.07449736446,244.0011749,0.0746004805,
243.0133972,0.07616023719,243.0133972,0.07624439895,243.0133972,0.0761238113,
241.9860687,0.07749801129,241.9860687,0.07757125795,241.9860687,0.07750902325,
240.9981232,0.07972274721,240.9981232,0.07972109318,240.9981232,0.07971157879,
240.0100861,0.08263228834,240.0100861,0.08266866952,240.0100861,0.08242834359,
238.9824371,0.08606592566,238.9824371,0.08598911762,238.9824371,0.08601211756,
237.9942169,0.08974164724,237.9942169,0.08960146457,237.9942169,0.08949527144,
237.0058899,0.09434881061,237.0058899,0.09431011975,237.0058899,0.09427692741,
236.0175171,0.0994342193,236.0175171,0.09939308465,236.0175171,0.09928911924,
234.989502,0.1056914777,234.989502,0.1055688336,234.989502,0.1056135297,
234.0009003,0.1105799228,234.0009003,0.110549368,234.0009003,0.110422574,
233.0122528,0.1170286015,233.0122528,0.1169690266,233.0122528,0.1170637161,
231.9839172,0.1246442571,231.9839172,0.1246213838,231.9839172,0.1246276647,
230.9950867,0.1313265115,230.9950867,0.1310266554,230.9950867,0.1309906393,
230.0061493,0.1390158832,230.0061493,0.1389312148,230.0061493,0.1388322413,
229.0171204,0.1439253539,229.0171204,0.1437039822,229.0171204,0.1436045915,
227.9884491,0.1511348933,227.9884491,0.1509652287,227.9884491,0.1508601755,
226.9992676,0.1617152542,226.9992676,0.161301598,226.9992676,0.1610516906,
226.0099945,0.1715914607,226.0099945,0.171114549,226.0099945,0.1709792614,
224.9810333,0.1820976436,224.9810333,0.1821695119,224.9810333,0.1819669604,
223.9916077,0.1899938434,223.9916077,0.1898957938,223.9916077,0.1898170412,
223.0020447,0.1982701123,223.0020447,0.198319152,223.0020447,0.1981381774,
222.0124207,0.2077682465,222.0124207,0.2077379227,222.0124207,0.2075857967,
220.9831238,0.219211638,220.9831238,0.2194657028,220.9831238,0.2191867232,
219.9933319,0.2314873189,219.9933319,0.2314088643,219.9933319,0.231110692,
219.0034485,0.2431242466,219.0034485,0.2432589233,219.0034485,0.242869541,
218.013504,0.2561683655,218.013504,0.2557832301,218.013504,0.2557988465,
216.9838562,0.2725489736,216.9838562,0.2727376223,216.9838562,0.2718317509,
215.9937286,0.2892044783,215.9937286,0.2891955078,215.9937286,0.2886568606,
215.00354,0.3079454303,215.00354,0.3081564605,215.00354,0.3077389598,
214.0132141,0.3251084983,214.0132141,0.3256962895,214.0132141,0.3252606392,
212.9832611,0.3485152423,212.9832611,0.3485096991,212.9832611,0.3482396305,
211.9927979,0.3741398156,211.9927979,0.3747972846,211.9927979,0.3745193481,
211.0022888,0.4035035968,211.0022888,0.4032556713,211.0022888,0.4027457833,
210.0116425,0.4397851229,210.0116425,0.4391862154,210.0116425,0.4387615621,
208.9813538,0.4762044847,208.9813538,0.4766646326,208.9813538,0.4745952487,
207.9905701,0.5216051936,207.9905701,0.521959424,207.9905701,0.5202655196,
206.9997101,0.571813643,206.9997101,0.572298646,206.9997101,0.5719553828,
206.0087738,0.6283713579,206.0087738,0.6279128194,206.0087738,0.6270055175,
205.0177765,0.6895202994,205.0177765,0.6876789927,205.0177765,0.6888988614,
203.98703,0.7600033283,203.98703,0.7595304251,203.98703,0.7603310943,
202.9958954,0.8301742077,202.9958954,0.8283805847,202.9958954,0.8291258812,
202.0046539,0.8994416595,202.0046539,0.900542438,202.0046539,0.8988685608,
201.0133362,0.9725449085,201.0133362,0.9744040966,201.0133362,0.9754390717,
199.9822845,1.062056065,199.9822845,1.06398809,199.9822845,1.062146544,

sample1,
sample1
Collection Time: 15/04/2026 1:29:49 PM
Operator Name  :
Scan Version 5.3.0.1083
Parameter List :
Instrument  Cary 60
Instrument Version  2.00
Start (nm)  800.0
Stop (nm)  200.0
X Mode  Nanometers
Y Mode  Abs
UV-Vis Scan Rate (nm/min)  600.000
UV-Vis Data Interval (nm)  1.00
UV-Vis Ave. Time (sec)  0.1000
Beam Mode  Dual Beam
Baseline Correction  Off
Cycle Mode  Off
Method Log     :
Method Name    :
Date/Time stamp: 15/04/2026 1:06:08 PM
Method Modifications:
UVVIS SAT Changed: 15/04/2026 1:27:59 PM, Old:0.0125, New:0.1000
Common SAT Changed: 15/04/2026 1:27:59 PM, Old:0.0125, New:0.1000
Common Interval nm Changed: 15/04/2026 1:28:02 PM, Old:     5.00, New:     1.00
End Method Modifications
<Current Wavelength> , 204.0

sample2,
sample2
Collection Time: 15/04/2026 1:30:52 PM
Operator Name  :
Scan Version 5.3.0.1083
Parameter List :
Instrument  Cary 60
Instrument Version  2.00
Start (nm)  800.0
Stop (nm)  200.0
X Mode  Nanometers
Y Mode  Abs
UV-Vis Scan Rate (nm/min)  600.000
UV-Vis Data Interval (nm)  1.00
UV-Vis Ave. Time (sec)  0.1000
Beam Mode  Dual Beam
Baseline Correction  Off
Cycle Mode  Off
Method Log     :
Method Name    :
Date/Time stamp: 15/04/2026 1:06:08 PM
Method Modifications:
UVVIS SAT Changed: 15/04/2026 1:27:59 PM, Old:0.0125, New:0.1000
Common SAT Changed: 15/04/2026 1:27:59 PM, Old:0.0125, New:0.1000
Common Interval nm Changed: 15/04/2026 1:28:02 PM, Old:     5.00, New:     1.00
End Method Modifications
<Current Wavelength> , 203.0

sample3,
sample3
Collection Time: 15/04/2026 1:31:55 PM
Operator Name  :
Scan Version 5.3.0.1083
Parameter List :
Instrument  Cary 60
Instrument Version  2.00
Start (nm)  800.0
Stop (nm)  200.0
X Mode  Nanometers
Y Mode  Abs
UV-Vis Scan Rate (nm/min)  600.000
UV-Vis Data Interval (nm)  1.00
UV-Vis Ave. Time (sec)  0.1000
Beam Mode  Dual Beam
Baseline Correction  Off
Cycle Mode  Off
Method Log     :
Method Name    :
Date/Time stamp: 15/04/2026 1:06:08 PM
Method Modifications:
UVVIS SAT Changed: 15/04/2026 1:27:59 PM, Old:0.0125, New:0.1000
Common SAT Changed: 15/04/2026 1:27:59 PM, Old:0.0125, New:0.1000
Common Interval nm Changed: 15/04/2026 1:28:02 PM, Old:     5.00, New:     1.00
End Method Modifications
<Current Wavelength> , 204.0

