sample7,,sample8,,sample9,,
Wavelength (nm),Abs,Wavelength (nm),Abs,Wavelength (nm),Abs,
800.0151978,0.03435353935,800.0151978,0.03281328082,800.0151978,0.03175320476,
799.0057373,0.03461795673,799.0057373,0.03250065818,799.0057373,0.03141510114,
797.9959717,0.0341238901,797.9959717,0.03257291764,797.9959717,0.03163714334,
796.9857178,0.03416068852,796.9857178,0.03229761124,796.9857178,0.03147443756,
796.0099487,0.03412573785,796.0099487,0.03221575171,796.0099487,0.03179804236,
794.9989014,0.03433838114,794.9989014,0.03249767423,794.9989014,0.03157890216,
793.9874878,0.03366887197,793.9874878,0.03293026984,793.9874878,0.03139481694,
793.0105591,0.03389937431,793.0105591,0.0327709578,793.0105591,0.03140903637,
791.9983521,0.03357053176,791.9983521,0.03281981125,791.9983521,0.03103464097,
790.9857178,0.03340919688,790.9857178,0.03240509331,790.9857178,0.03175228462,
790.0076294,0.03372126818,790.0076294,0.03258246183,790.0076294,0.0314142406,
788.9942627,0.03372708708,788.9942627,0.03258179128,788.9942627,0.03172301501,
788.0154419,0.033735957,788.0154419,0.03298788145,788.0154419,0.03130736575,
787.0012817,0.03356194869,787.0012817,0.03289502859,787.0012817,0.0316529572,
785.9865723,0.0330793038,785.9865723,0.03238919377,785.9865723,0.03132648021,
785.0067139,0.03334778175,785.0067139,0.0324431099,785.0067139,0.03147777542,
783.991272,0.03321771324,783.991272,0.03231618553,783.991272,0.03118886612,
783.010498,0.03321653977,783.010498,0.03206158057,783.010498,0.03129565343,
781.9944458,0.0333157517,781.9944458,0.03223593533,781.9944458,0.0312817432,
781.0128784,0.03271393105,781.0128784,0.03200052306,781.0128784,0.03121556714,
779.9960327,0.03315252811,779.9960327,0.03198466823,779.9960327,0.03084575757,
779.0137329,0.03266944364,779.0137329,0.03232837096,779.0137329,0.03163928539,
777.9960327,0.03281059861,777.9960327,0.03217468783,777.9960327,0.03110838123,
777.0130615,0.03280470893,777.0130615,0.0319821015,777.0130615,0.03121973947,
775.9945679,0.0326536186,775.9945679,0.03197276965,775.9945679,0.03165390342,
775.0108032,0.03302550316,775.0108032,0.03206938133,775.0108032,0.03131715953,
773.9916382,0.03269595653,773.9916382,0.0321030803,773.9916382,0.03176760301,
773.0070801,0.03289941326,773.0070801,0.03248425573,773.0070801,0.0314861238,
771.9870605,0.03323255107,771.9870605,0.03203365579,771.9870605,0.03142459318,
771.0018921,0.03339119256,771.0018921,0.03215868771,771.0018921,0.03146965057,
770.0162964,0.03328201547,770.0162964,0.03260685131,770.0162964,0.03210530803,
768.9950562,0.03370823339,768.9950562,0.0327132903,768.9950562,0.03245412931,
768.0087891,0.03393592685,768.0087891,0.03345837444,768.0087891,0.03242564946,
766.9868164,0.03432269394,766.9868164,0.03358384594,766.9868164,0.03303569928,
765.9997559,0.03458647802,765.9997559,0.0337359868,765.9997559,0.0330879055,
765.0123291,0.03495637327,765.0123291,0.03429465368,765.0123291,0.03339295462,
763.9892578,0.03514545411,763.9892578,0.03491426632,763.9892578,0.03423034027,
763.0010986,0.03572415188,763.0010986,0.03508042544,763.0010986,0.03447341174,
762.0126343,0.03565810993,762.0126343,0.03533313051,762.0126343,0.03408443928,
760.9883423,0.03567083925,760.9883423,0.03558912501,760.9883423,0.03458872065,
759.9991455,0.0356865488,759.9991455,0.03516964987,759.9991455,0.03436261788,
759.0095825,0.03554883599,759.0095825,0.03525743261,759.0095825,0.03358272836,
757.9841919,0.03532038257,757.9841919,0.03461647406,757.9841919,0.03349981084,
756.9938965,0.03507862985,756.9938965,0.03447851166,756.9938965,0.03326793015,
756.0031738,0.03427454084,756.0031738,0.03378007933,756.0031738,0.03289357573,
755.012085,0.03396721929,755.012085,0.03363225982,755.012085,0.03239011392,
753.9852905,0.03399457037,753.9852905,0.03341369703,753.9852905,0.03208437562,
752.9934692,0.0338281244,752.9934692,0.03328067437,752.9934692,0.03186132759,
752.0013428,0.03391014785,752.0013428,0.03332240134,752.0013428,0.03193919361,
751.0089111,0.03394426778,751.0089111,0.03323811293,751.0089111,0.03213761374,
750.0160522,0.03388400748,750.0160522,0.03324828669,750.0160522,0.03183795884,
748.9873657,0.03383545578,748.9873657,0.03307988867,748.9873657,0.03213390708,
747.9937744,0.03371925652,747.9937744,0.03306299075,747.9937744,0.03196115047,
746.9998779,0.0334834829,746.9998779,0.03308374435,746.9998779,0.03182912618,
746.0055542,0.03334009647,746.0055542,0.03271527216,746.0055542,0.03149542212,
745.0108643,0.03334308788,745.0108643,0.03244280443,745.0108643,0.03091674112,
744.0159302,0.03262870014,744.0159302,0.03193069622,744.0159302,0.03058615141,
742.9850464,0.03180096671,742.9850464,0.0313558057,742.9850464,0.02993007936,
741.9893799,0.03152965754,741.9893799,0.03079584613,741.9893799,0.02934306674,
740.9933472,0.03079090081,740.9933472,0.03028509393,740.9933472,0.02863970399,
739.9969482,0.03054168634,739.9969482,0.02965744026,739.9969482,0.02809905633,
739.0001831,0.0298982989,739.0001831,0.02908397093,739.0001831,0.0280910749,
738.0031128,0.02952110209,738.0031128,0.02884226292,738.0031128,0.02723822929,
737.0056763,0.0290949326,737.0056763,0.02843997441,737.0056763,0.02687118389,
736.0078735,0.02851534821,736.0078735,0.027881274,736.0078735,0.02614316158,
735.0097656,0.0280620791,735.0097656,0.02710796706,735.0097656,0.02581557818,
734.0112305,0.02784448303,734.0112305,0.02688228153,734.0112305,0.02536596917,
733.0123901,0.02736588567,733.0123901,0.02659619227,733.0123901,0.02500782162,
732.0131836,0.02695179544,732.0131836,0.02631089464,732.0131836,0.02467706613,
731.0136719,0.02726014145,731.0136719,0.02615355328,731.0136719,0.02443694882,
730.013855,0.02705220319,730.013855,0.02590212226,730.013855,0.02411253937,
729.0136108,0.02667331137,729.0136108,0.02574086376,729.0136108,0.02427697182,
728.0130615,0.02673078887,728.0130615,0.02569842897,728.0130615,0.02392724343,
727.012146,0.02671727166,727.012146,0.02564281784,727.012146,0.02409023792,
726.0109253,0.02675914578,726.0109253,0.02582516707,726.0109253,0.02380896173,
725.0092773,0.02679513022,725.0092773,0.02572674491,725.0092773,0.02417909354,
724.0073853,0.026678266,724.0073853,0.02597351372,724.0073853,0.02410799637,
723.0050659,0.02720105089,723.0050659,0.02614951134,723.0050659,0.02437353134,
722.0025635,0.02741416357,722.0025635,0.02616556734,722.0025635,0.02462786064,
720.9995117,0.02784039825,720.9995117,0.02665685117,720.9995117,0.02515684813,
719.9962158,0.0282887388,719.9962158,0.02705534361,719.9962158,0.02544772811,
718.9926147,0.02865692973,718.9926147,0.02735400386,718.9926147,0.02580373921,
717.9885864,0.02908219956,717.9885864,0.0276381392,717.9885864,0.0260874927,
716.984314,0.02949760668,716.984314,0.02807494812,716.984314,0.02647233754,
716.015564,0.03012247756,716.015564,0.02862510458,716.015564,0.02729661018,
715.0105591,0.03047973104,715.0105591,0.029075142,715.0105591,0.02756048925,
714.005249,0.03128210455,714.005249,0.02978833206,714.005249,0.02833106555,
712.9995728,0.03195593879,712.9995728,0.03057018109,712.9995728,0.02895982191,
711.9935913,0.03280777857,711.9935913,0.03127879649,711.9935913,0.02978802659,
710.9873047,0.03335999697,710.9873047,0.03173203766,710.9873047,0.03049469925,
710.0165405,0.03409714997,710.0165405,0.03274128586,710.0165405,0.03113660775,
709.0095825,0.03453947231,709.0095825,0.03338166326,709.0095825,0.03187960386,
708.0021973,0.03508850932,708.0021973,0.03409720585,708.0021973,0.03234532475,
706.9946289,0.03587926552,706.9946289,0.0346609652,706.9946289,0.03317186236,
705.9866333,0.0367776081,705.9866333,0.03525900468,705.9866333,0.03404949605,
705.0142822,0.03729030117,705.0142822,0.036181245,705.0142822,0.03473840654,
704.0055542,0.03829715401,704.0055542,0.03696161881,704.0055542,0.03533411026,
702.9966431,0.03908352554,702.9966431,0.03760525957,702.9966431,0.03608008102,
701.9873657,0.03956699744,701.9873657,0.03823029622,701.9873657,0.03705881536,
701.0137329,0.0402732417,701.0137329,0.03902742267,701.0137329,0.03759047017,
700.0037231,0.04094149917,700.0037231,0.0396838896,700.0037231,0.03833094239,
698.9934692,0.04173504189,698.9934692,0.04066390917,698.9934692,0.03897293657,
697.9829102,0.04245173559,697.9829102,0.04139534757,697.9829102,0.04009759054,
697.0079956,0.04293965548,697.0079956,0.0421278514,697.0079956,0.04064017162,
695.9967651,0.0436463505,695.9967651,0.042672351,695.9967651,0.04100109637,
694.9851685,0.0442834124,694.9851685,0.04314253852,694.9851685,0.04164813459,
694.0093994,0.04459909722,694.0093994,0.04413180426,694.0093994,0.04238038138,
692.9971313,0.04540875554,692.9971313,0.04459450766,692.9971313,0.04296226054,
691.9846191,0.04572554678,691.9846191,0.04486377537,691.9846191,0.04347650707,
691.0078125,0.04612192884,691.0078125,0.04567381367,691.0078125,0.04404461756,
689.9946289,0.04653068632,689.9946289,0.04591250047,689.9946289,0.04485943913,
689.017334,0.04729990661,689.017334,0.04680591077,689.017334,0.04502528906,
688.003418,0.04784521088,688.003418,0.04724273086,688.003418,0.04588441923,
686.9891968,0.04813523963,686.9891968,0.04749446735,686.9891968,0.04612040147,
686.0109863,0.04878237471,686.0109863,0.04799713939,686.0109863,0.04677566886,
684.9962158,0.04914262518,684.9962158,0.04834678397,684.9962158,0.04728628322,
684.017334,0.04956140369,684.017334,0.04871431738,684.017334,0.04736479744,
683.0018921,0.04967892915,683.0018921,0.04900031909,683.0018921,0.04756487533,
681.986084,0.04988652468,681.986084,0.04914871231,681.986084,0.04786434397,
681.0062866,0.05020645261,681.0062866,0.04958957806,681.0062866,0.04846881703,
679.9898682,0.05095281824,679.9898682,0.05000599846,679.9898682,0.04904515296,
679.0094604,0.05107366294,679.0094604,0.05023214221,679.0094604,0.04899643734,
677.9924316,0.05139473453,677.9924316,0.05054709315,677.9924316,0.04938923195,
677.0114136,0.05174659938,677.0114136,0.05071841553,677.0114136,0.04952118918,
675.9937744,0.05200998113,675.9937744,0.05109820887,675.9937744,0.04988100752,
675.012085,0.05218161643,675.012085,0.05148673058,675.012085,0.05016316101,
673.9938354,0.05232461914,673.9938354,0.05163157359,673.9938354,0.05072903261,
673.0116577,0.05261946842,673.0116577,0.05180947855,673.0116577,0.05095377937,
671.9926758,0.05294305459,671.9926758,0.05191652849,671.9926758,0.0511649549,
671.0098877,0.05320798233,671.0098877,0.05252480507,671.0098877,0.051256001,
669.9902954,0.05351593345,669.9902954,0.0525999181,669.9902954,0.05142366886,
669.006897,0.05317772925,669.006897,0.05241526663,669.006897,0.05134441704,
667.9867554,0.05269708112,667.9867554,0.05201461911,667.9867554,0.05089969933,
667.0027466,0.05285878852,667.0027466,0.05180644244,667.0027466,0.05098498613,
665.9819946,0.05243649706,665.9819946,0.05206034705,665.9819946,0.05103168264,
664.9973145,0.05243325606,664.9973145,0.05176622793,664.9973145,0.05064086244,
664.0123901,0.05252576619,664.0123901,0.05184742436,664.0123901,0.05079566315,
662.9906616,0.0521822311,662.9906616,0.05167912692,662.9906616,0.05068763718,
662.005188,0.05262279883,662.005188,0.05154144019,662.005188,0.05076292902,
660.9828491,0.05252667144,660.9828491,0.05205848068,660.9828491,0.05104050413,
659.9967651,0.0526794903,659.9967651,0.05193639547,659.9967651,0.05078096688,
659.010376,0.05317044258,659.010376,0.05199075118,659.010376,0.05143069103,
657.9870605,0.05290536582,657.9870605,0.05221089721,657.9870605,0.05119693279,
657.0001831,0.05312395468,657.0001831,0.05234824121,657.0001831,0.05125224218,
656.0128784,0.05321974307,656.0128784,0.05228260159,656.0128784,0.05125652626,
654.9887695,0.05300473049,654.9887695,0.05218231678,654.9887695,0.05141501501,
654.0009155,0.05345207825,654.0009155,0.05221191794,654.0009155,0.05154222623,
653.0127563,0.05330062658,653.0127563,0.05273636431,653.0127563,0.0519269444,
651.9876709,0.05383078381,651.9876709,0.05248267949,651.9876709,0.05183286965,
650.9989624,0.05368898809,650.9989624,0.05289945751,650.9989624,0.05206227303,
650.0100098,0.05408880487,650.0100098,0.05271190032,650.0100098,0.05215896666,
648.9840088,0.05370492116,648.9840088,0.05321362987,648.9840088,0.05237087235,
647.9944458,0.05399294198,647.9944458,0.05288106576,647.9944458,0.05250187218,
647.0045776,0.05422434211,647.0045776,0.05289124325,647.0045776,0.05236149952,
646.0144043,0.05418961868,646.0144043,0.0527086854,646.0144043,0.05240431428,
644.9873047,0.05451185629,644.9873047,0.05308279768,644.9873047,0.05230639875,
643.99646,0.05456876382,643.99646,0.052859433,643.99646,0.05231795833,
643.0054932,0.05483676866,643.0054932,0.05302040651,643.0054932,0.05246836692,
642.0142212,0.05487089604,642.0142212,0.05314282328,642.0142212,0.05275021866,
640.9858398,0.05488402769,640.9858398,0.05312193558,640.9858398,0.05282084271,
639.9940186,0.05510661379,639.9940186,0.05315537378,639.9940186,0.05280286074,
639.0018311,0.05519878492,639.0018311,0.05322129279,639.0018311,0.05294972286,
638.0094604,0.05541156232,638.0094604,0.05362478271,638.0094604,0.05296644941,
637.0166626,0.05529209226,637.0166626,0.05376031995,637.0166626,0.05337315425,
635.9868774,0.05568638816,635.9868774,0.05339674652,635.9868774,0.053188961,
634.9935913,0.0558549501,634.9935913,0.0535608232,634.9935913,0.0534883514,
634.000061,0.05582100898,634.000061,0.05384660885,634.000061,0.05353534594,
633.0062256,0.05596491694,633.0062256,0.05372270569,633.0062256,0.05374239013,
632.012085,0.05572738126,632.012085,0.05354673788,632.012085,0.05340994895,
631.0176392,0.05571172386,631.0176392,0.05341568962,631.0176392,0.05328417942,
629.986145,0.0560153313,629.986145,0.05351965129,629.986145,0.05355561152,
628.9911499,0.05573061854,628.9911499,0.05351965129,628.9911499,0.05336601287,
627.9959106,0.05585088581,627.9959106,0.05345166847,627.9959106,0.05346510559,
627.0003662,0.05608100817,627.0003662,0.05353016406,627.0003662,0.0535877347,
626.0046387,0.05634894967,626.0046387,0.05375911668,626.0046387,0.05343313515,
625.0085449,0.05631361157,625.0085449,0.05377962813,625.0085449,0.05369798094,
624.012207,0.05644450709,624.012207,0.05380608514,624.012207,0.05341211706,
623.015564,0.05625364557,623.015564,0.05388282984,623.015564,0.05395431072,
621.9817505,0.05643324554,621.9817505,0.0538068749,621.9817505,0.05378654227,
620.9845581,0.05657883361,620.9845581,0.05398892611,620.9845581,0.05367606878,
619.9871826,0.05671582744,619.9871826,0.05408760533,619.9871826,0.05382826552,
618.9893799,0.05650620908,618.9893799,0.05403269082,618.9893799,0.05373702943,
617.9914551,0.05663345009,617.9914551,0.05421612784,617.9914551,0.05392901599,
616.9931641,0.05686318874,616.9931641,0.05457707122,616.9931641,0.05394953117,
615.9946289,0.05676122382,615.9946289,0.05421005934,615.9946289,0.05413035303,
614.9957886,0.0568484664,614.9957886,0.05453374982,614.9957886,0.05417460203,
613.9967041,0.05701810122,613.9967041,0.05470036715,613.9967041,0.05412492901,
612.9974365,0.05714111775,612.9974365,0.05468307436,612.9974365,0.05451349914,
611.9976807,0.05719237775,611.9976807,0.05474135652,611.9976807,0.05432785302,
610.9979248,0.05724352598,610.9979248,0.05478569865,610.9979248,0.05463912711,
609.9976807,0.05755648389,609.9976807,0.05513817817,609.9976807,0.05478317291,
608.9973145,0.05808736756,608.9973145,0.05567352846,608.9973145,0.05528583005,
607.996582,0.05814370885,607.996582,0.05568685755,607.996582,0.05546347424,
606.9956665,0.05837960914,606.9956665,0.05571475625,606.9956665,0.05526965857,
605.9944458,0.05824173614,605.9944458,0.05571790412,605.9944458,0.05533866584,
604.9929199,0.05872974545,604.9929199,0.05625022575,604.9929199,0.05581232533,
603.9911499,0.05906409025,603.9911499,0.05659328401,603.9911499,0.05623216555,
602.9891968,0.05952585861,602.9891968,0.05708581954,602.9891968,0.05654235929,
601.9868774,0.05981559679,601.9868774,0.05727311969,601.9868774,0.05675322935,
600.984314,0.06017744914,600.984314,0.05770286173,600.984314,0.05704989284,
599.9815063,0.06080500409,599.9815063,0.05812009424,599.9815063,0.05767790973,
599.015564,0.06096469611,599.015564,0.0585382916,599.015564,0.05795186386,
598.0122681,0.06161540747,598.0122681,0.05915241688,598.0122681,0.05845696107,
597.008667,0.06286213547,597.008667,0.06014638022,597.008667,0.05947963521,
596.0048218,0.06359606236,596.0048218,0.06097896397,596.0048218,0.0603325963,
595.0006714,0.06457229704,595.0006714,0.06203549355,595.0006714,0.06154766306,
593.9963989,0.06584560126,593.9963989,0.06334069371,593.9963989,0.06254470348,
592.9916992,0.06710288674,592.9916992,0.0645705834,592.9916992,0.06383686513,
591.9868164,0.06876908243,591.9868164,0.06615752727,591.9868164,0.06541980058,
590.9816284,0.0702772662,590.9816284,0.0679153949,590.9816284,0.06708225608,
590.0134888,0.07278414816,590.0134888,0.06998457015,590.0134888,0.06919360161,
589.0078125,0.07506483048,589.0078125,0.07232660055,589.0078125,0.07154399157,
588.0018921,0.07767287642,588.0018921,0.07502950728,588.0018921,0.07418701053,
586.9956665,0.08053230494,586.9956665,0.07780005783,586.9956665,0.07692442834,
585.9891968,0.08365752548,585.9891968,0.08103168011,585.9891968,0.08021250367,
584.9825439,0.08728595823,584.9825439,0.08466879278,584.9825439,0.08374176919,
584.0128784,0.09115004539,584.0128784,0.08865754306,584.0128784,0.08770081401,
583.0056763,0.09613925964,583.0056763,0.09374124557,583.0056763,0.09237261862,
581.9981689,0.1011670381,581.9981689,0.0986334458,581.9981689,0.09745298326,
580.9904785,0.1064523906,580.9904785,0.1038107648,580.9904785,0.1024094373,
579.9824829,0.1120843664,579.9824829,0.109513849,579.9824829,0.1082292423,
579.0115967,0.1178735271,579.0115967,0.1155458987,579.0115967,0.1141459718,
578.0031738,0.1245422438,578.0031738,0.1220370755,578.0031738,0.1205988824,
576.9944458,0.1316727102,576.9944458,0.1293985844,576.9944458,0.1275937259,
575.9854126,0.1383229792,575.9854126,0.1358150542,575.9854126,0.1345510781,
575.0136108,0.1449762732,575.0136108,0.1424133033,575.0136108,0.1411046684,
574.0041504,0.1518763304,574.0041504,0.1495267898,574.0041504,0.1480046064,
572.9943848,0.1589326411,572.9943848,0.1563702971,572.9943848,0.1548026204,
571.984436,0.1661259979,571.984436,0.1632669717,571.984436,0.1618312001,
571.0115967,0.1729615927,571.0115967,0.1703558415,571.0115967,0.1688351631,
570.0011597,0.1794745028,570.0011597,0.1770239025,570.0011597,0.175583154,
568.9904175,0.1855136603,568.9904175,0.1829291433,568.9904175,0.1813026369,
568.0169067,0.1906378418,568.0169067,0.1882431507,568.0169067,0.1867965162,
567.0056763,0.1958538443,567.0056763,0.1934946775,567.0056763,0.1918683052,
565.9942017,0.2007298023,565.9942017,0.1983323097,565.9942017,0.1966505647,
564.9824829,0.205366537,564.9824829,0.202952832,564.9824829,0.2013613731,
564.0080566,0.2089517415,564.0080566,0.2063138485,564.0080566,0.2050641328,
562.9957886,0.2119850218,562.9957886,0.2095653117,562.9957886,0.2081109136,
561.9833984,0.2145785391,561.9833984,0.2123610377,561.9833984,0.2106790245,
561.0081787,0.2165394425,561.0081787,0.2141676694,561.0081787,0.2129171044,
559.9953003,0.2180303037,559.9953003,0.2159297019,559.9953003,0.2144828439,
558.9820557,0.219326064,558.9820557,0.2172862142,558.9820557,0.2156164944,
558.0062256,0.2201444656,558.0062256,0.2178557664,558.0062256,0.2164839208,
556.9924927,0.2203328609,556.9924927,0.2181706876,556.9924927,0.2168260664,
556.0161743,0.2202759981,556.0161743,0.2180809379,556.0161743,0.2168630511,
555.0020752,0.2197337002,555.0020752,0.2176524997,555.0020752,0.2162414342,
553.9876709,0.2188954204,553.9876709,0.2168707699,553.9876709,0.2154237032,
553.0106201,0.2179693729,553.0106201,0.2159289718,553.0106201,0.2147409022,
551.9957886,0.2169553488,551.9957886,0.2149291784,551.9957886,0.2134311795,
551.0183105,0.215851143,551.0183105,0.2135870159,551.0183105,0.2123465538,
550.0029907,0.2145880461,550.0029907,0.2124061584,550.0029907,0.2111225575,
548.9873657,0.2132473141,548.9873657,0.211234197,548.9873657,0.2099449933,
548.0091553,0.2122183442,548.0091553,0.2100535482,548.0091553,0.2088370323,
546.993103,0.2113972455,546.993103,0.209164083,546.993103,0.2079365999,
546.0145264,0.210580647,546.0145264,0.2082714587,546.0145264,0.2071936131,
544.9979858,0.2096416354,544.9979858,0.2073407173,544.9979858,0.2061297297,
543.9812012,0.2088834345,543.9812012,0.2068077922,543.9812012,0.2054956108,
543.0018921,0.2084579915,543.0018921,0.2063064426,543.0018921,0.205047071,
541.9846191,0.2081133425,541.9846191,0.2060149908,541.9846191,0.2048118711,
541.0048218,0.2086687535,541.0048218,0.206315726,541.0048218,0.2052121311,
539.9872437,0.2085367292,539.9872437,0.206178382,539.9872437,0.2049353868,
539.006958,0.2083527446,539.006958,0.2061311007,539.006958,0.2048946023,
537.9888306,0.2081799209,537.9888306,0.20631589,537.9888306,0.2050063461,
537.0081177,0.2087828666,537.0081177,0.2066904157,537.0081177,0.2055007517,
535.9894409,0.2094037831,535.9894409,0.2072576135,535.9894409,0.206076771,
535.0083618,0.2096750289,535.0083618,0.2076167464,535.0083618,0.2063482404,
533.9892578,0.2102051973,533.9892578,0.2081219107,533.9892578,0.2069320828,
533.0076904,0.2111765295,533.0076904,0.2089979351,533.0076904,0.2078931928,
531.9882202,0.2116309404,531.9882202,0.2095920593,531.9882202,0.2084625065,
531.0061646,0.2122341245,531.0061646,0.2101302743,531.0061646,0.2091191262,
529.986145,0.213094309,529.986145,0.2109827995,529.986145,0.2098943591,
529.0036621,0.2141335011,529.0036621,0.2120261788,529.0036621,0.2109774947,
527.9832764,0.2152219564,527.9832764,0.2130584121,527.9832764,0.2119420469,
527.0003662,0.2156921476,527.0003662,0.2136505991,527.0003662,0.2125529349,
526.0172729,0.2163893282,526.0172729,0.2143353373,526.0172729,0.2132627517,
524.9961548,0.21736449,524.9961548,0.215122968,524.9961548,0.2140975595,
524.0125732,0.2178611606,524.0125732,0.2157557011,524.0125732,0.2147435695,
522.9909668,0.2187211365,522.9909668,0.2166481465,522.9909668,0.2156093419,
522.0070801,0.2194624841,522.0070801,0.2172288895,522.0070801,0.2164294571,
520.9849854,0.2205077559,520.9849854,0.2184227705,520.9849854,0.2174205035,
520.0006104,0.2214181125,520.0006104,0.219319582,520.0006104,0.2181944251,
519.0159912,0.2223178595,519.0159912,0.2202115506,519.0159912,0.2191985548,
517.9932861,0.2235039324,517.9932861,0.2213710099,517.9932861,0.2203494608,
517.0082397,0.224266246,517.0082397,0.2220774591,517.0082397,0.2211274207,
515.9851074,0.2252933681,515.9851074,0.2232128233,515.9851074,0.2221885771,
514.9996338,0.2264219671,514.9996338,0.2240890265,514.9996338,0.2231410742,
514.0139771,0.2274358124,514.0139771,0.2250871211,514.0139771,0.2242657244,
512.9901123,0.2287069857,512.9901123,0.2264796197,512.9901123,0.2253862172,
512.0039673,0.2299456298,512.0039673,0.2277081609,512.0039673,0.2268422097,
511.0176392,0.2313892692,511.0176392,0.2289899588,511.0176392,0.2280644327,
509.9931946,0.2327995896,509.9931946,0.2304562032,509.9931946,0.2295303196,
509.0064392,0.2341984808,509.0064392,0.231840983,509.0064392,0.2307531387,
507.9815369,0.2359642088,507.9815369,0.2333744913,507.9815369,0.2325266451,
506.9943542,0.2374069691,506.9943542,0.2347647995,506.9943542,0.2339435965,
506.007019,0.2389819324,506.007019,0.2361819893,506.007019,0.2355086505,
504.9814148,0.2405185848,504.9814148,0.237950936,504.9814148,0.2371389419,
503.9936523,0.2419976443,503.9936523,0.239464432,503.9936523,0.2385775447,
503.0055847,0.2437367141,503.0055847,0.241076827,503.0055847,0.2402532101,
502.0173645,0.2454990447,502.0173645,0.242937699,502.0173645,0.2419119626,
500.9910278,0.2474739105,500.9910278,0.2446583211,500.9910278,0.2438539267,
500.0023499,0.2490194142,500.0023499,0.2462932616,500.0023499,0.2455780506,
499.0135498,0.2509040833,499.0135498,0.2481416464,499.0135498,0.2472676486,
497.9864807,0.2524347305,497.9864807,0.2496428788,497.9864807,0.2489068955,
496.9972534,0.2542865872,496.9972534,0.251406163,496.9972534,0.250572741,
496.0078125,0.2563370466,496.0078125,0.2535215318,496.0078125,0.2527138293,
495.018219,0.2583417296,495.018219,0.2555713654,495.018219,0.2547329664,
493.9902039,0.2605399787,493.9902039,0.2575890124,493.9902039,0.2567369044,
493.0001526,0.2624338269,493.0001526,0.2596484125,493.0001526,0.2587912381,
492.0098572,0.2645500302,492.0098572,0.2618826926,492.0098572,0.2609553337,
490.9813843,0.2670049369,490.9813843,0.2643545866,490.9813843,0.2633134127,
489.9907227,0.2695323229,489.9907227,0.2669240832,489.9907227,0.2657819688,
488.9998474,0.2721611261,488.9998474,0.2694271803,488.9998474,0.2684445381,
488.0087585,0.2744944692,488.0087585,0.271779269,488.0087585,0.2708164752,
487.0175476,0.2771847248,487.0175476,0.2745530605,487.0175476,0.2733546793,
485.9879456,0.2799898088,485.9879456,0.2773518562,485.9879456,0.2762335241,
484.9963074,0.2828870416,484.9963074,0.2800646126,484.9963074,0.2790367901,
484.0044556,0.2860487401,484.0044556,0.2835238278,484.0044556,0.2821072936,
483.0123596,0.2890974581,483.0123596,0.2865503132,483.0123596,0.2852035463,
481.9819946,0.2917684615,481.9819946,0.2894530296,481.9819946,0.2880117297,
480.989502,0.2952073812,480.989502,0.2929697037,480.989502,0.2913413942,
479.9967957,0.2983654141,479.9967957,0.2960796654,479.9967957,0.2947815061,
479.0039368,0.3019037247,479.0039368,0.2996049225,479.0039368,0.2981963158,
478.0109558,0.3050239086,478.0109558,0.3029431701,478.0109558,0.3014360368,
477.0176697,0.3082540035,477.0176697,0.3061329722,477.0176697,0.3046424985,
475.9860229,0.3120974302,475.9860229,0.3097338974,475.9860229,0.3080275953,
474.9924316,0.3152808845,474.9924316,0.3132236302,474.9924316,0.3117074966,
473.9985657,0.3188984692,473.9985657,0.3167233467,473.9985657,0.3153442144,
473.0045166,0.3228120208,473.0045166,0.3203327656,473.0045166,0.3189392686,
472.0103455,0.3256301284,472.0103455,0.3235541284,472.0103455,0.3220916092,
471.0158691,0.3291005492,471.0158691,0.3271175623,471.0158691,0.3252974153,
469.9830933,0.3322885334,469.9830933,0.3303340077,469.9830933,0.3285647035,
468.9882813,0.335272789,468.9882813,0.3332853913,468.9882813,0.3316528797,
467.9932861,0.3384200633,467.9932861,0.3364346623,467.9932861,0.3349127769,
466.9981384,0.3414373696,466.9981384,0.3394618928,466.9981384,0.3377432227,
466.0027466,0.3444037139,466.0027466,0.3423819542,466.0027466,0.3406086564,
465.0072021,0.3470034003,465.0072021,0.3449567258,465.0072021,0.3434620202,
464.0114136,0.3495666981,464.0114136,0.3474726379,464.0114136,0.3459117115,
463.0155029,0.3521622419,463.0155029,0.3501873314,463.0155029,0.3484663665,
461.9810181,0.3549028039,461.9810181,0.3527813852,461.9810181,0.3512690365,
460.9847107,0.3572612107,460.9847107,0.35512802,460.9847107,0.3535608649,
459.9881897,0.3596072197,459.9881897,0.3575478792,459.9881897,0.3558617532,
458.9915466,0.361997515,458.9915466,0.3598461151,458.9915466,0.3581589162,
457.9945984,0.3642074168,457.9945984,0.3620948195,457.9945984,0.3605317175,
456.9975281,0.3665674031,456.9975281,0.3644247353,456.9975281,0.3627218008,
456.0002747,0.3688111603,456.0002747,0.3665399551,456.0002747,0.3648842275,
455.0028076,0.3707511425,455.0028076,0.3685840666,455.0028076,0.3667116165,
454.005188,0.3725621402,454.005188,0.3701484501,454.005188,0.368473053,
453.0073853,0.3743489087,453.0073853,0.3718242347,453.0073853,0.3702205122,
452.0093994,0.3764443099,452.0093994,0.373924166,452.0093994,0.3720832467,
451.0112,0.3781857193,451.0112,0.3756914437,451.0112,0.3738674223,
450.0128174,0.379735589,450.0128174,0.3773507774,450.0128174,0.3755465746,
449.0143127,0.3813242316,449.0143127,0.3788909018,449.0143127,0.3770313561,
448.0155945,0.3829241395,448.0155945,0.380715549,448.0155945,0.3787772655,
447.0166626,0.3849158287,447.0166626,0.3826166689,447.0166626,0.3807389736,
446.0175171,0.386890471,446.0175171,0.3847787678,446.0175171,0.3827632368,
445.0182495,0.38882038,445.0182495,0.3865242004,445.0182495,0.3846058547,
444.0188293,0.390390873,444.0188293,0.3881982863,444.0188293,0.3861415684,
443.0191345,0.391969502,443.0191345,0.3898151517,443.0191345,0.387781769,
441.980896,0.3938918114,441.980896,0.3916780353,441.980896,0.3895891607,
440.980896,0.3960518539,440.980896,0.3937284946,440.980896,0.3917022049,
440.0191956,0.3978462219,440.0191956,0.3956662416,440.0191956,0.39349401,
439.0187988,0.3995861411,439.0187988,0.3974009156,439.0187988,0.3952724934,
438.01828,0.4012137353,438.01828,0.3989904225,438.01828,0.3970389068,
437.0175476,0.4031581879,437.0175476,0.4009852111,437.0175476,0.3988644779,
436.0166321,0.4051299393,436.0166321,0.4028784335,436.0166321,0.4008371532,
435.015564,0.4071154594,435.015564,0.4050000608,435.015564,0.4028999507,
434.0143433,0.4090866745,434.0143433,0.4067388773,434.0143433,0.4046952128,
433.0129395,0.4108629227,433.0129395,0.4086787701,433.0129395,0.4065900445,
432.0112915,0.4129602611,432.0112915,0.4107329249,432.0112915,0.4086482227,
431.009491,0.4151003361,431.009491,0.4128530025,431.009491,0.4108124673,
430.0075684,0.4174903631,430.0075684,0.4152570367,430.0075684,0.4131082594,
429.0054321,0.4193890393,429.0054321,0.417270869,429.0054321,0.4150879681,
428.0031128,0.4212554097,428.0031128,0.419323504,428.0031128,0.4170337915,
427.0006409,0.4234340489,427.0006409,0.4214562774,427.0006409,0.4192025959,
425.9980164,0.4257591367,425.9980164,0.4240085781,425.9980164,0.4217342734,
424.9951477,0.42795223,424.9951477,0.4261583686,424.9951477,0.4240148664,
423.992157,0.4300467074,423.992157,0.4285311997,423.992157,0.4262689054,
422.9889832,0.4317432344,422.9889832,0.4302564561,422.9889832,0.4280829132,
421.9856567,0.4341359735,421.9856567,0.4327631295,421.9856567,0.4305385053,
420.9821167,0.4364981353,420.9821167,0.4352641702,420.9821167,0.432926625,
420.0170593,0.4390117526,420.0170593,0.4377686977,420.0170593,0.4355013072,
419.0131531,0.441200465,419.0131531,0.4401165843,419.0131531,0.437780112,
418.0091858,0.4433960021,418.0091858,0.4424197376,418.0091858,0.4400640726,
417.0049133,0.4458978474,417.0049133,0.4448078871,417.0049133,0.4426010847,
416.0006104,0.4484848976,416.0006104,0.4475275278,416.0006104,0.4452679753,
414.9960327,0.4511363208,414.9960327,0.4500940144,414.9960327,0.4477699101,
413.991394,0.4538784325,413.991394,0.4528715611,413.991394,0.4504626393,
412.9864807,0.4562538564,412.9864807,0.4550234675,412.9864807,0.4529206157,
411.9814453,0.4585801065,411.9814453,0.4577993155,411.9814453,0.4556083977,
411.0149231,0.4614859223,411.0149231,0.460434854,411.0149231,0.4580792487,
410.009552,0.4644867182,410.009552,0.4631693363,410.009552,0.4610312879,
409.0039673,0.4672352672,409.0039673,0.4660577178,409.0039673,0.4637543261,
407.998291,0.4699162841,407.998291,0.4686717391,407.998291,0.4665443897,
406.9924316,0.4726852775,406.9924316,0.4714406729,406.9924316,0.4692536891,
405.9863892,0.4756919444,405.9863892,0.4745127559,405.9863892,0.4722757936,
405.0188904,0.4785860479,405.0188904,0.4775987267,405.0188904,0.475222826,
404.0125427,0.4819395244,404.0125427,0.4807896912,404.0125427,0.4785524607,
403.0060425,0.484977901,403.0060425,0.483677268,403.0060425,0.4815045297,
401.9992981,0.4878654778,401.9992981,0.4867900908,401.9992981,0.4843228161,
400.9924316,0.4910635054,400.9924316,0.4899251163,400.9924316,0.4878293872,
399.9854431,0.4942941368,399.9854431,0.4932777584,399.9854431,0.4909034669,
399.0169983,0.4977199435,399.0169983,0.4966786206,399.0169983,0.494287163,
398.0096741,0.5010916591,398.0096741,0.499713093,398.0096741,0.497695297,
397.0021973,0.5041619539,397.0021973,0.5028865933,397.0021973,0.5009550452,
395.9945374,0.5077514052,395.9945374,0.5064847469,395.9945374,0.5043237209,
394.9867249,0.5110238791,394.9867249,0.5098932981,394.9867249,0.5078457594,
394.0174866,0.5147603154,394.0174866,0.5134168863,394.0174866,0.5111683011,
393.0093384,0.5180308819,393.0093384,0.5171772838,393.0093384,0.514839828,
392.0010681,0.5217536688,392.0010681,0.5205467343,392.0010681,0.5186888576,
390.9925842,0.5258826613,390.9925842,0.5246922374,390.9925842,0.5223942399,
389.9839478,0.5292797089,389.9839478,0.528128624,389.9839478,0.5259016752,
389.0140076,0.5329120159,389.0140076,0.531735599,389.0140076,0.5295673609,
388.0050964,0.5370311737,388.0050964,0.5356501341,388.0050964,0.5336074829,
386.9960022,0.5406367183,386.9960022,0.5393868685,386.9960022,0.5373594165,
385.9867859,0.5444375277,385.9867859,0.5434513092,385.9867859,0.5410487056,
385.0162048,0.5481551886,385.0162048,0.5471228361,385.0162048,0.5450325012,
384.0066223,0.5520104766,384.0066223,0.5509850383,384.0066223,0.5490607023,
382.9969177,0.556343317,382.9969177,0.5553624034,382.9969177,0.552842319,
381.9870605,0.5600035191,381.9870605,0.5590825081,381.9870605,0.5570094585,
381.0158997,0.5639719963,381.0158997,0.5628046393,381.0158997,0.5609178543,
380.0057373,0.5682855248,380.0057373,0.5675476193,380.0057373,0.5652672052,
378.9954224,0.5727013946,378.9954224,0.5715007186,378.9954224,0.5695382953,
377.9848938,0.5773788095,377.9848938,0.5762043595,377.9848938,0.5745407343,
377.0131836,0.5815418959,377.0131836,0.5803051591,377.0131836,0.5783460736,
376.0024109,0.5856851339,376.0024109,0.5843188763,376.0024109,0.5826743841,
374.9914551,0.5897251964,374.9914551,0.5888414979,374.9914551,0.5869278908,
374.0192566,0.5944073796,374.0192566,0.5932830572,374.0192566,0.5907907486,
373.0080261,0.5992959142,373.0080261,0.5985966325,373.0080261,0.5962344408,
371.9966431,0.6041145325,371.9966431,0.602535367,371.9966431,0.6011417508,
370.9851074,0.6088091135,370.9851074,0.6077437997,370.9851074,0.6062259078,
370.0123596,0.6135312319,370.0123596,0.6123005152,370.0123596,0.6100037694,
369.0005188,0.6176716685,369.0005188,0.616466105,369.0005188,0.6145071387,
367.9885559,0.6224964261,367.9885559,0.6212923527,367.9885559,0.6201054454,
367.0153503,0.6271551847,367.0153503,0.6262875795,367.0153503,0.6240340471,
366.0030518,0.6321957707,366.0030518,0.6309934855,366.0030518,0.6292312741,
364.9906311,0.6372328401,364.9906311,0.636044085,364.9906311,0.6341885328,
364.0169983,0.6420135498,364.0169983,0.6407359838,364.0169983,0.6383243799,
363.0043335,0.6478435993,363.0043335,0.6464246511,363.0043335,0.6447816491,
361.9914246,0.6529144645,361.9914246,0.6515982151,361.9914246,0.6495416164,
361.0173645,0.657471478,361.0173645,0.6561040282,361.0173645,0.6541154981,
360.0042419,0.6624808908,360.0042419,0.6609393358,360.0042419,0.6590530276,
358.9909363,0.6675087214,358.9909363,0.6665600538,358.9909363,0.6642487049,
358.0164795,0.6733653545,358.0164795,0.6722911,358.0164795,0.6698505878,
357.0028992,0.678276062,357.0028992,0.6769688725,357.0028992,0.6745223999,
355.9891663,0.6839808822,355.9891663,0.6826918721,355.9891663,0.6797738671,
355.0142822,0.6886273026,355.0142822,0.6873964667,355.0142822,0.6849975586,
354.0002747,0.6937277913,354.0002747,0.6931960583,354.0002747,0.6902043819,
352.9861145,0.6998687387,352.9861145,0.6993530393,352.9861145,0.6966502666,
352.0108032,0.7058233023,352.0108032,0.7043225169,352.0108032,0.7016996145,
350.9963989,0.7114130855,350.9963989,0.7099348307,350.9963989,0.707136035,
349.9818115,0.716833353,349.9818115,0.7150934935,349.9818115,0.7125402689,
349.0061035,0.7219310999,349.0061035,0.7209595442,349.0061035,0.7176816463,
347.9912109,0.7283805013,347.9912109,0.7271456122,347.9912109,0.7245266438,
347.0152588,0.733522296,347.0152588,0.7331105471,347.0152588,0.7305225134,
346.0001526,0.7394292951,346.0001526,0.7389574647,346.0001526,0.7358031869,
344.9848328,0.7459626794,344.9848328,0.7448166609,344.9848328,0.7421661615,
344.0084839,0.7516400218,344.0084839,0.7501519322,344.0084839,0.74761796,
342.9929199,0.7585000396,342.9929199,0.7576954365,342.9929199,0.7541395426,
342.0163269,0.7643656135,342.0163269,0.763051331,342.0163269,0.7600551248,
341.0004883,0.770444572,341.0004883,0.7694154382,341.0004883,0.7658645511,
339.9845276,0.7767096162,339.9845276,0.7760553956,339.9845276,0.7730300426,
339.0074768,0.7828169465,339.0074768,0.7829614282,339.0074768,0.7790856361,
337.9912415,0.7910066247,337.9912415,0.7903015614,337.9912415,0.7864648104,
337.0139465,0.7976244688,337.0139465,0.7969357371,337.0139465,0.7939513326,
335.9974365,0.8046526313,335.9974365,0.8038652539,335.9974365,0.8007040024,
334.9808044,0.8122439981,334.9808044,0.8121231198,334.9808044,0.8078582883,
334.0031128,0.8196547031,334.0031128,0.8192199469,334.0031128,0.8156544566,
332.9861755,0.8284555674,332.9861755,0.8278238177,332.9861755,0.8235342503,
332.0082703,0.8356019855,332.0082703,0.8357075453,332.0082703,0.8318930268,
330.9911194,0.8442215919,330.9911194,0.8439161181,330.9911194,0.8396547437,
330.0129089,0.8520031571,330.0129089,0.8519304991,330.0129089,0.84807688,
328.9954529,0.8607937098,328.9954529,0.860527277,328.9954529,0.8563380837,
328.0170288,0.8709319234,328.0170288,0.8707234263,328.0170288,0.8661031127,
326.9993286,0.8794162869,326.9993286,0.8795869946,326.9993286,0.8755267262,
325.9814758,0.8888472319,325.9814758,0.8888819218,325.9814758,0.8844788074,
325.002655,0.8987541199,325.002655,0.8988845348,325.002655,0.8948893547,
323.9845581,0.9089618325,323.9845581,0.9088541269,323.9845581,0.9041401148,
323.0054932,0.9189349413,323.0054932,0.9192481637,323.0054932,0.9144440889,
321.9871216,0.9297984242,321.9871216,0.9303512573,321.9871216,0.9254233837,
321.007782,0.9407999516,321.007782,0.940885663,321.007782,0.9361734986,
319.9891663,0.9509593844,319.9891663,0.9517867565,319.9891663,0.9470604658,
319.009613,0.9617044926,319.009613,0.9625208974,319.009613,0.9577899575,
317.9907837,0.9747236967,317.9907837,0.9751533866,317.9907837,0.9706653357,
317.0109253,0.9862798452,317.0109253,0.9867600203,317.0109253,0.982154429,
315.9918213,0.9981856942,315.9918213,0.998762548,315.9918213,0.9933098555,
315.0117493,1.009860396,315.0117493,1.010482311,315.0117493,1.00518167,
313.9924011,1.021658301,313.9924011,1.022253633,313.9924011,1.017228127,
313.0121155,1.035796046,313.0121155,1.036161661,313.0121155,1.031312227,
311.9924622,1.048074484,311.9924622,1.049558043,311.9924622,1.043629408,
311.0119324,1.060618043,311.0119324,1.061865091,311.0119324,1.056478143,
309.9920654,1.075029254,309.9920654,1.076582432,309.9920654,1.070968866,
309.0112915,1.090377808,309.0112915,1.091107845,309.0112915,1.086148143,
307.9911499,1.106501818,307.9911499,1.107457519,307.9911499,1.101762176,
307.0101624,1.122660518,307.0101624,1.123077869,307.0101624,1.117106318,
305.9897461,1.137851357,305.9897461,1.138464928,305.9897461,1.133220673,
305.0085449,1.153723836,305.0085449,1.154501796,305.0085449,1.149003267,
303.987915,1.171035647,303.987915,1.170939684,303.987915,1.166176915,
303.0064392,1.190320015,303.0064392,1.191625476,303.0064392,1.184792161,
301.9855652,1.207643747,301.9855652,1.208240867,301.9855652,1.202644348,
301.0038452,1.224604607,301.0038452,1.225481153,301.0038452,1.219809055,
299.9827881,1.244201183,299.9827881,1.244642019,299.9827881,1.238801241,
299.0008545,1.263978958,299.0008545,1.264861226,299.0008545,1.258855462,
298.0187683,1.285204411,298.0187683,1.285853267,298.0187683,1.280334234,
296.9973145,1.304684281,296.9973145,1.306565166,296.9973145,1.300183535,
296.0150452,1.325200915,296.0150452,1.326119065,296.0150452,1.32019186,
294.9933472,1.349270582,294.9933472,1.34995997,294.9933472,1.343643665,
294.0108337,1.371140361,294.0108337,1.371217728,294.0108337,1.366257906,
292.9888916,1.397481561,292.9888916,1.397298098,292.9888916,1.392094851,
292.0061646,1.422258973,292.0061646,1.421902299,292.0061646,1.416656494,
290.9840393,1.446213365,290.9840393,1.445988536,290.9840393,1.440698862,
290.0010681,1.471149325,290.0010681,1.471592903,290.0010681,1.465770841,
289.0180054,1.501114607,289.0180054,1.501843691,289.0180054,1.49651289,
287.9954834,1.533033013,287.9954834,1.534492254,287.9954834,1.528132796,
287.0121765,1.565941811,287.0121765,1.566214681,287.0121765,1.559848428,
285.9894104,1.594668627,285.9894104,1.596837163,285.9894104,1.590744138,
285.0059204,1.630006433,285.0059204,1.630401254,285.0059204,1.6245327,
283.9829712,1.664892912,283.9829712,1.665888786,283.9829712,1.66016829,
282.9992676,1.703187943,282.9992676,1.70513463,282.9992676,1.698240876,
282.0154114,1.737229943,282.0154114,1.737960219,282.0154114,1.732255101,
280.9920654,1.776184916,280.9920654,1.776937127,280.9920654,1.770808816,
280.0080566,1.817381263,280.0080566,1.815474749,280.0080566,1.809435725,
278.9845276,1.855698109,278.9845276,1.857964396,278.9845276,1.853300214,
278.0002747,1.902394056,278.0002747,1.900622964,278.0002747,1.897742033,
277.0158997,1.944156647,277.0158997,1.940175891,277.0158997,1.936603427,
275.9920044,1.98679471,275.9920044,1.984057665,275.9920044,1.981515884,
275.0074463,2.034648657,275.0074463,2.033818483,275.0074463,2.030320883,
273.9833679,2.088610888,273.9833679,2.08487463,273.9833679,2.078788519,
272.9985657,2.120577574,272.9985657,2.125135422,272.9985657,2.118304491,
272.0137024,2.160797119,272.0137024,2.159446239,272.0137024,2.153427124,
270.9892883,2.188980818,270.9892883,2.190855742,270.9892883,2.185557127,
270.0041504,2.231183529,270.0041504,2.238273382,270.0041504,2.231998444,
269.0189514,2.280935287,269.0189514,2.28139329,269.0189514,2.269116163,
267.9942322,2.321981907,267.9942322,2.313369989,267.9942322,2.316902399,
267.0088196,2.354612112,267.0088196,2.357833147,267.0088196,2.344529867,
265.9838867,2.378682137,265.9838867,2.381994724,265.9838867,2.367852688,
264.9982605,2.421487808,264.9982605,2.414562464,264.9982605,2.414581776,
264.0125427,2.450021267,264.0125427,2.451299429,264.0125427,2.432297468,
262.9872742,2.467488289,262.9872742,2.484409571,262.9872742,2.474978447,
262.0013733,2.505700827,262.0013733,2.509274244,262.0013733,2.495186329,
261.0153198,2.546681404,261.0153198,2.538833857,261.0153198,2.539249897,
259.9897766,2.573331594,259.9897766,2.565095425,259.9897766,2.563665867,
259.00354,2.583722591,259.00354,2.590157747,259.00354,2.578034878,
258.0172424,2.622321129,258.0172424,2.621747494,258.0172424,2.609903336,
256.9913635,2.636492252,256.9913635,2.631815672,256.9913635,2.640121937,
256.0048523,2.652045965,256.0048523,2.662991047,256.0048523,2.634011507,
255.0182037,2.667290211,255.0182037,2.668367147,255.0182037,2.677244902,
253.9920349,2.685693979,253.9920349,2.685006618,253.9920349,2.67583251,
253.0052643,2.721428156,253.0052643,2.708735228,253.0052643,2.711956739,
252.0183411,2.732117891,252.0183411,2.739751816,252.0183411,2.725958824,
250.9918518,2.734560251,250.9918518,2.739701509,250.9918518,2.734330177,
250.0047607,2.772040129,250.0047607,2.765137911,250.0047607,2.765179634,
249.0175476,2.781135798,249.0175476,2.782580376,249.0175476,2.769383669,
247.9907837,2.797787905,247.9907837,2.812636375,247.9907837,2.799198389,
247.0034027,2.817427874,247.0034027,2.813474417,247.0034027,2.810189009,
246.0159149,2.825403929,246.0159149,2.817098618,246.0159149,2.812864304,
244.9888458,2.848743916,244.9888458,2.832396746,244.9888458,2.825929165,
244.0011749,2.856517792,244.0011749,2.85722971,244.0011749,2.867461443,
243.0133972,2.871996164,243.0133972,2.861427784,243.0133972,2.86675334,
241.9860687,2.881270647,241.9860687,2.888406754,241.9860687,2.884587049,
240.9981232,2.87179327,240.9981232,2.882579088,240.9981232,2.874485016,
240.0100861,2.881302357,240.0100861,2.907056808,240.0100861,2.924091578,
238.9824371,2.936592579,238.9824371,2.925840616,238.9824371,2.902989626,
237.9942169,2.957133532,237.9942169,2.933758497,237.9942169,2.945202827,
237.0058899,2.956609726,237.0058899,2.969275713,237.0058899,2.98184824,
236.0175171,3.00515461,236.0175171,3.006406069,236.0175171,3.004554272,
234.989502,3.044768572,234.989502,3.042161226,234.989502,3.041497946,
234.0009003,3.058031559,234.0009003,3.067739725,234.0009003,3.066306114,
233.0122528,3.096057415,233.0122528,3.047756195,233.0122528,3.071447849,
231.9839172,3.136762619,231.9839172,3.144694328,231.9839172,3.179882288,
230.9950867,3.197059155,230.9950867,3.242817163,230.9950867,3.167833567,
230.0061493,3.175207376,230.0061493,3.229700327,230.0061493,3.220326185,
229.0171204,3.302437782,229.0171204,3.240188599,229.0171204,3.204944134,
227.9884491,3.329066753,227.9884491,3.315306187,227.9884491,3.29954505,
226.9992676,3.384368181,226.9992676,3.388569832,226.9992676,3.379983902,
226.0099945,3.431125402,226.0099945,3.392826319,226.0099945,3.424389362,
224.9810333,3.427277088,224.9810333,3.441287041,224.9810333,3.400763035,
223.9916077,3.410560369,223.9916077,3.396248341,223.9916077,3.41637063,
223.0020447,3.54399991,223.0020447,3.505482912,223.0020447,3.522323132,
222.0124207,3.512504339,222.0124207,3.530456066,222.0124207,3.436113119,
220.9831238,3.484518766,220.9831238,3.454559088,220.9831238,3.50883913,
219.9933319,3.51922822,219.9933319,3.487441778,219.9933319,3.534900427,
219.0034485,3.486793518,219.0034485,3.484492064,219.0034485,3.513716221,
218.013504,3.456608295,218.013504,3.504173517,218.013504,3.504531145,
216.9838562,3.532232761,216.9838562,3.479092121,216.9838562,3.471592188,
215.9937286,3.519286156,215.9937286,3.536022425,215.9937286,3.484989166,
215.00354,3.650053024,215.00354,3.518179893,215.00354,3.509166479,
214.0132141,3.523694992,214.0132141,3.53271699,214.0132141,3.582116604,
212.9832611,3.563187122,212.9832611,3.545743465,212.9832611,3.567387342,
211.9927979,3.621240377,211.9927979,3.541531324,211.9927979,3.544133425,
211.0022888,3.582652807,211.0022888,3.622521639,211.0022888,3.552607298,
210.0116425,3.587776423,210.0116425,3.598444939,210.0116425,3.551121235,
208.9813538,3.499751806,208.9813538,3.553570271,208.9813538,3.751702547,
207.9905701,3.672726154,207.9905701,3.554184198,207.9905701,3.560467958,
206.9997101,3.672664881,206.9997101,3.666297436,206.9997101,3.589425087,
206.0087738,3.741569996,206.0087738,3.570503712,206.0087738,3.684459448,
205.0177765,3.691327095,205.0177765,3.655056,205.0177765,3.523245096,
203.98703,3.66036725,203.98703,3.67610693,203.98703,3.730199099,
202.9958954,3.668271303,202.9958954,3.652231693,202.9958954,3.707264185,
202.0046539,3.661379576,202.0046539,3.572038651,202.0046539,3.525152922,
201.0133362,3.649957418,201.0133362,3.673882484,201.0133362,3.761813879,
199.9822845,3.49858427,199.9822845,3.523540258,199.9822845,3.585139275,

sample7,
sample7
Collection Time: 15/04/2026 1:49:32 PM
Operator Name  :
Scan Version 5.3.0.1083
Parameter List :
Instrument  Cary 60
Instrument Version  2.00
Start (nm)  800.0
Stop (nm)  200.0
X Mode  Nanometers
Y Mode  Abs
UV-Vis Scan Rate (nm/min)  600.000
UV-Vis Data Interval (nm)  1.00
UV-Vis Ave. Time (sec)  0.1000
Beam Mode  Dual Beam
Baseline Correction  Off
Cycle Mode  Off
Method Log     :
Method Name    :
Date/Time stamp: 15/04/2026 1:06:08 PM
Method Modifications:
UVVIS SAT Changed: 15/04/2026 1:27:59 PM, Old:0.0125, New:0.1000
Common SAT Changed: 15/04/2026 1:27:59 PM, Old:0.0125, New:0.1000
Common Interval nm Changed: 15/04/2026 1:28:02 PM, Old:     5.00, New:     1.00
End Method Modifications
<Current Wavelength> , 205.0

sample8,
sample8
Collection Time: 15/04/2026 1:50:36 PM
Operator Name  :
Scan Version 5.3.0.1083
Parameter List :
Instrument  Cary 60
Instrument Version  2.00
Start (nm)  800.0
Stop (nm)  200.0
X Mode  Nanometers
Y Mode  Abs
UV-Vis Scan Rate (nm/min)  600.000
UV-Vis Data Interval (nm)  1.00
UV-Vis Ave. Time (sec)  0.1000
Beam Mode  Dual Beam
Baseline Correction  Off
Cycle Mode  Off
Method Log     :
Method Name    :
Date/Time stamp: 15/04/2026 1:06:08 PM
Method Modifications:
UVVIS SAT Changed: 15/04/2026 1:27:59 PM, Old:0.0125, New:0.1000
Common SAT Changed: 15/04/2026 1:27:59 PM, Old:0.0125, New:0.1000
Common Interval nm Changed: 15/04/2026 1:28:02 PM, Old:     5.00, New:     1.00
End Method Modifications
<Current Wavelength> , 203.0

sample9,
sample9
Collection Time: 15/04/2026 1:51:39 PM
Operator Name  :
Scan Version 5.3.0.1083
Parameter List :
Instrument  Cary 60
Instrument Version  2.00
Start (nm)  800.0
Stop (nm)  200.0
X Mode  Nanometers
Y Mode  Abs
UV-Vis Scan Rate (nm/min)  600.000
UV-Vis Data Interval (nm)  1.00
UV-Vis Ave. Time (sec)  0.1000
Beam Mode  Dual Beam
Baseline Correction  Off
Cycle Mode  Off
Method Log     :
Method Name    :
Date/Time stamp: 15/04/2026 1:06:08 PM
Method Modifications:
UVVIS SAT Changed: 15/04/2026 1:27:59 PM, Old:0.0125, New:0.1000
Common SAT Changed: 15/04/2026 1:27:59 PM, Old:0.0125, New:0.1000
Common Interval nm Changed: 15/04/2026 1:28:02 PM, Old:     5.00, New:     1.00
End Method Modifications
<Current Wavelength> , 201.0

