sample4,,sample5,,sample6,,
Wavelength (nm),Abs,Wavelength (nm),Abs,Wavelength (nm),Abs,
800.0151978,0.035444621,800.0151978,0.03447775543,800.0151978,0.03310707211,
799.0057373,0.03533315659,799.0057373,0.03474651277,799.0057373,0.03366708383,
797.9959717,0.03517155722,797.9959717,0.03407122195,797.9959717,0.03349933773,
796.9857178,0.03533484042,796.9857178,0.03373881057,796.9857178,0.033336211,
796.0099487,0.03521459177,796.0099487,0.03370979801,796.0099487,0.03346371651,
794.9989014,0.03547487035,794.9989014,0.03418280929,794.9989014,0.03312198818,
793.9874878,0.03534503654,793.9874878,0.03389685601,793.9874878,0.0335156098,
793.0105591,0.03572049737,793.0105591,0.03377893195,793.0105591,0.0331219621,
791.9983521,0.03511079028,791.9983521,0.03389775008,791.9983521,0.03336005285,
790.9857178,0.03574896976,790.9857178,0.03386587277,790.9857178,0.03303232044,
790.0076294,0.03528575972,790.0076294,0.0338610597,790.0076294,0.03313098475,
788.9942627,0.03574587777,788.9942627,0.03391717374,788.9942627,0.03349687532,
788.0154419,0.03540527448,788.0154419,0.03373349458,788.0154419,0.03330079839,
787.0012817,0.03512996063,787.0012817,0.03389906511,787.0012817,0.03359835967,
785.9865723,0.0354790017,785.9865723,0.03344545886,785.9865723,0.03336902708,
785.0067139,0.03515996411,785.0067139,0.03362263739,785.0067139,0.03325054795,
783.991272,0.03470731154,783.991272,0.03365790844,783.991272,0.03320966661,
783.010498,0.03469359875,783.010498,0.03312391788,783.010498,0.03274050355,
781.9944458,0.03513577208,781.9944458,0.03388504311,781.9944458,0.03290170431,
781.0128784,0.03467915952,781.0128784,0.03370227292,781.0128784,0.03252646327,
779.9960327,0.03490817547,779.9960327,0.0334264189,779.9960327,0.03260302544,
779.0137329,0.03509695455,779.0137329,0.03376499936,779.0137329,0.03228063136,
777.9960327,0.03449036554,777.9960327,0.0335684903,777.9960327,0.03259479627,
777.0130615,0.03489392623,777.0130615,0.03329291567,777.0130615,0.03269484267,
775.9945679,0.03492767364,775.9945679,0.03367606178,775.9945679,0.03342627734,
775.0108032,0.03461882845,775.0108032,0.0331222415,775.0108032,0.03257548809,
773.9916382,0.03462625667,773.9916382,0.03391252831,773.9916382,0.03284060955,
773.0070801,0.03459670767,773.0070801,0.03365156054,773.0070801,0.03247050196,
771.9870605,0.03448111936,771.9870605,0.03409678489,771.9870605,0.03270126134,
771.0018921,0.0347420834,771.0018921,0.03393169865,771.0018921,0.03275884315,
770.0162964,0.03483064845,770.0162964,0.03415284678,770.0162964,0.03345160931,
768.9950562,0.03514495119,768.9950562,0.03451441228,768.9950562,0.03374868631,
768.0087891,0.03529589623,768.0087891,0.03440383449,768.0087891,0.03359819204,
766.9868164,0.03561241925,766.9868164,0.03469651565,766.9868164,0.03363024443,
765.9997559,0.03577567264,765.9997559,0.03508373722,765.9997559,0.03402844444,
765.0123291,0.03649351373,765.0123291,0.03524889797,765.0123291,0.03450048342,
763.9892578,0.0368623063,763.9892578,0.03644401953,763.9892578,0.03526004404,
763.0010986,0.03689358383,763.0010986,0.03671433404,763.0010986,0.03562644124,
762.0126343,0.0369277969,762.0126343,0.03681403771,762.0126343,0.03526579961,
760.9883423,0.03694408759,760.9883423,0.03675875813,760.9883423,0.0354542844,
759.9991455,0.03732982278,759.9991455,0.03677245229,759.9991455,0.03514301404,
759.0095825,0.03658122569,759.0095825,0.03606095538,759.0095825,0.03492287546,
757.9841919,0.03625220433,757.9841919,0.03592351824,757.9841919,0.03462650999,
756.9938965,0.03581406921,756.9938965,0.0357023403,756.9938965,0.03432272375,
756.0031738,0.03558257967,756.0031738,0.03550158441,756.0031738,0.0336737968,
755.012085,0.03526922315,755.012085,0.03533770517,755.012085,0.03349153697,
753.9852905,0.03535396606,753.9852905,0.03474861383,753.9852905,0.03302343935,
752.9934692,0.03495132551,752.9934692,0.03501324728,752.9934692,0.03317532688,
752.0013428,0.03481833264,752.0013428,0.03470946848,752.0013428,0.0329512693,
751.0089111,0.0347167328,751.0089111,0.03458608314,751.0089111,0.03346106037,
750.0160522,0.03469612449,750.0160522,0.03463890031,750.0160522,0.03296964616,
748.9873657,0.03483507782,748.9873657,0.03440697119,748.9873657,0.03276099265,
747.9937744,0.03437754884,747.9937744,0.03445925936,747.9937744,0.03269400448,
746.9998779,0.03451455384,746.9998779,0.03398396075,746.9998779,0.03275635839,
746.0055542,0.03446169943,746.0055542,0.03383075446,746.0055542,0.03237798437,
745.0108643,0.03383592889,745.0108643,0.03316571563,745.0108643,0.03195925429,
744.0159302,0.0333757624,744.0159302,0.03293135762,744.0159302,0.0315143764,
742.9850464,0.03336326778,742.9850464,0.03206723556,742.9850464,0.03075705655,
741.9893799,0.03235759586,741.9893799,0.03126299381,741.9893799,0.03009120934,
740.9933472,0.03192955628,740.9933472,0.03089909256,740.9933472,0.02939893119,
739.9969482,0.03130205348,739.9969482,0.03008163907,739.9969482,0.02887452021,
739.0001831,0.03100625426,739.0001831,0.02958666161,739.0001831,0.02850423567,
738.0031128,0.03055390716,738.0031128,0.02893757448,738.0031128,0.02769188024,
737.0056763,0.02985060401,737.0056763,0.02846780606,737.0056763,0.02761618048,
736.0078735,0.02938264608,736.0078735,0.02789449692,736.0078735,0.02689145133,
735.0097656,0.02882289886,735.0097656,0.02744297683,735.0097656,0.02663590573,
734.0112305,0.02844879031,734.0112305,0.02681699209,734.0112305,0.02617070824,
733.0123901,0.02827641554,733.0123901,0.02684094757,733.0123901,0.02585467324,
732.0131836,0.02781956084,732.0131836,0.0264079906,732.0131836,0.02567214705,
731.0136719,0.02775079012,731.0136719,0.0260957405,731.0136719,0.02547855303,
730.013855,0.02755883336,730.013855,0.02593613975,730.013855,0.02498465218,
729.0136108,0.02742706798,729.0136108,0.025741769,729.0136108,0.0250404533,
728.0130615,0.02719010971,728.0130615,0.02550109103,728.0130615,0.02488494106,
727.012146,0.02738496475,727.012146,0.02579461783,727.012146,0.02506252751,
726.0109253,0.02724462375,726.0109253,0.02569145337,726.0109253,0.0248545967,
725.0092773,0.02739078179,725.0092773,0.02548887581,725.0092773,0.02506376244,
724.0073853,0.02729534172,724.0073853,0.02587453648,724.0073853,0.0250659287,
723.0050659,0.02744008228,723.0050659,0.0258017052,723.0050659,0.0252418071,
722.0025635,0.02751986124,722.0025635,0.0262114834,722.0025635,0.02558169514,
720.9995117,0.02791895345,720.9995117,0.02649181709,720.9995117,0.02575440519,
719.9962158,0.02809331194,719.9962158,0.02680424415,719.9962158,0.02626752481,
718.9926147,0.02867589891,718.9926147,0.02717123367,718.9926147,0.02666698024,
717.9885864,0.02888268046,717.9885864,0.02726584859,717.9885864,0.02693989687,
716.984314,0.029297648,716.984314,0.0280138962,716.984314,0.0275780037,
716.015564,0.02998621389,716.015564,0.02836417034,716.015564,0.02817752026,
715.0105591,0.03037347645,715.0105591,0.0287714228,715.0105591,0.02861479111,
714.005249,0.0310673099,714.005249,0.02970117703,714.005249,0.02929360606,
712.9995728,0.03190016374,712.9995728,0.03039424308,712.9995728,0.02986771241,
711.9935913,0.03264156356,711.9935913,0.03105980344,711.9935913,0.03084395081,
710.9873047,0.03353303298,710.9873047,0.03156216815,710.9873047,0.03155440465,
710.0165405,0.0340400897,710.0165405,0.03252501413,710.0165405,0.03201183677,
709.0095825,0.0347013399,709.0095825,0.03299039602,709.0095825,0.03282461315,
708.0021973,0.03525712341,708.0021973,0.03368023038,708.0021973,0.03347900882,
706.9946289,0.03614984453,706.9946289,0.0342410095,706.9946289,0.03386035934,
705.9866333,0.03689781204,705.9866333,0.0350311771,705.9866333,0.03488091007,
705.0142822,0.03751466051,705.0142822,0.03601069376,705.0142822,0.03561536968,
704.0055542,0.03842832893,704.0055542,0.03663484752,704.0055542,0.03622690961,
702.9966431,0.0392552875,702.9966431,0.03729577363,702.9966431,0.0370635204,
701.9873657,0.03965192661,701.9873657,0.03797565028,701.9873657,0.03767668083,
701.0137329,0.04037155211,701.0137329,0.03834847361,701.0137329,0.03809460253,
700.0037231,0.04106160998,700.0037231,0.03932284191,700.0037231,0.03895512596,
698.9934692,0.0420313701,698.9934692,0.04028164968,698.9934692,0.03980297595,
697.9829102,0.04243803397,697.9829102,0.04110457748,697.9829102,0.04070458934,
697.0079956,0.04300993308,697.0079956,0.0414789021,697.0079956,0.04124727845,
695.9967651,0.04350629076,695.9967651,0.04215994105,695.9967651,0.0418654941,
694.9851685,0.04447247088,694.9851685,0.04247548431,694.9851685,0.04246355221,
694.0093994,0.0448217541,694.0093994,0.04344529286,694.0093994,0.04284147918,
692.9971313,0.04563677683,692.9971313,0.04395237565,692.9971313,0.04356678575,
691.9846191,0.04590266198,691.9846191,0.04457293823,691.9846191,0.04401963577,
691.0078125,0.04622323811,691.0078125,0.04486477748,691.0078125,0.04464737698,
689.9946289,0.04711414501,689.9946289,0.04564551637,689.9946289,0.04495988414,
689.017334,0.04758549854,689.017334,0.04624040052,689.017334,0.04567993805,
688.003418,0.04821894318,688.003418,0.04648922384,688.003418,0.04595856741,
686.9891968,0.04842190444,686.9891968,0.04699938744,686.9891968,0.04637439921,
686.0109863,0.04920149967,686.0109863,0.04748020321,686.0109863,0.04704998434,
684.9962158,0.04907952249,684.9962158,0.04787197337,684.9962158,0.04750619084,
684.017334,0.04955226183,684.017334,0.04814397544,684.017334,0.04773886874,
683.0018921,0.04967698455,683.0018921,0.04825999215,683.0018921,0.0480601415,
681.986084,0.0497324802,681.986084,0.04847211763,681.986084,0.04843941331,
681.0062866,0.05032415688,681.0062866,0.04898392037,681.0062866,0.04860712588,
679.9898682,0.05074052513,679.9898682,0.04930347577,679.9898682,0.04893358797,
679.0094604,0.05105800182,679.0094604,0.04962027818,679.0094604,0.04947224632,
677.9924316,0.0512885116,677.9924316,0.05008576065,677.9924316,0.04967803136,
677.0114136,0.05182829127,677.0114136,0.05001883581,677.0114136,0.05015357211,
675.9937744,0.05168382078,675.9937744,0.05061747506,675.9937744,0.05015708506,
675.012085,0.05231880769,675.012085,0.05074648932,675.012085,0.0505500026,
673.9938354,0.05234450474,673.9938354,0.05091559142,673.9938354,0.05057998374,
673.0116577,0.05257341638,673.0116577,0.0513449125,673.0116577,0.05085450411,
671.9926758,0.05325614661,671.9926758,0.05119614676,671.9926758,0.05112537742,
671.0098877,0.05322697014,671.0098877,0.05176194012,671.0098877,0.05116311833,
669.9902954,0.05316108093,669.9902954,0.05182960257,669.9902954,0.05156761408,
669.006897,0.05314972997,669.006897,0.05191553757,669.006897,0.05157073215,
667.9867554,0.05294884369,667.9867554,0.0514851287,667.9867554,0.05074960366,
667.0027466,0.05297449231,667.0027466,0.05139339343,667.0027466,0.05094661936,
665.9819946,0.05267893523,665.9819946,0.05131720379,665.9819946,0.05057920143,
664.9973145,0.05278848112,664.9973145,0.05108435079,664.9973145,0.05089536309,
664.0123901,0.05260053277,664.0123901,0.05133165419,664.0123901,0.05069237947,
662.9906616,0.05265052989,662.9906616,0.05116143078,662.9906616,0.05063454807,
662.005188,0.05242215842,662.005188,0.0511915721,662.005188,0.05084425956,
660.9828491,0.05233256146,660.9828491,0.05125072971,660.9828491,0.05080986395,
659.9967651,0.05241336673,659.9967651,0.05122562125,659.9967651,0.05100364611,
659.010376,0.05289176852,659.010376,0.05146196112,659.010376,0.05108938739,
657.9870605,0.05276263878,657.9870605,0.05175858736,657.9870605,0.05094551295,
657.0001831,0.0529213585,657.0001831,0.05165652931,657.0001831,0.05091966689,
656.0128784,0.05275477841,656.0128784,0.05168536678,656.0128784,0.05116378888,
654.9887695,0.05304094031,654.9887695,0.05160746351,654.9887695,0.05121688172,
654.0009155,0.05298344046,654.0009155,0.0516160354,654.0009155,0.05154435337,
653.0127563,0.05289755762,653.0127563,0.05189578608,653.0127563,0.05144089088,
651.9876709,0.05319071934,651.9876709,0.05210065097,651.9876709,0.0514392592,
650.9989624,0.05336384848,650.9989624,0.05224099755,650.9989624,0.05195474625,
650.0100098,0.05346797407,650.0100098,0.05248373002,650.0100098,0.05159046873,
648.9840088,0.05322246626,648.9840088,0.05261362344,648.9840088,0.05183418095,
647.9944458,0.05347090214,647.9944458,0.05238816142,647.9944458,0.051706478,
647.0045776,0.05342555419,647.0045776,0.0525538139,647.0045776,0.05201155692,
646.0144043,0.05316178128,646.0144043,0.05269249529,646.0144043,0.05198611319,
644.9873047,0.05346753448,644.9873047,0.05245200917,644.9873047,0.05227877572,
643.99646,0.05370002985,643.99646,0.0526682958,643.99646,0.05232079327,
643.0054932,0.05380233377,643.0054932,0.05288004503,643.0054932,0.0520982556,
642.0142212,0.05379492044,642.0142212,0.05292164907,642.0142212,0.05220783129,
640.9858398,0.05374570191,640.9858398,0.05299490318,640.9858398,0.05244222283,
639.9940186,0.05404163525,639.9940186,0.05283019692,639.9940186,0.05248665065,
639.0018311,0.05400023982,639.0018311,0.05317184702,639.0018311,0.05247084796,
638.0094604,0.05459567904,638.0094604,0.05293346569,638.0094604,0.0525926128,
637.0166626,0.05474447086,637.0166626,0.05340087414,637.0166626,0.05254554749,
635.9868774,0.05458205938,635.9868774,0.05313811451,635.9868774,0.05270085111,
634.9935913,0.05486549437,634.9935913,0.0531998463,634.9935913,0.0526521951,
634.000061,0.05482302234,634.000061,0.05353244767,634.000061,0.05291966349,
633.0062256,0.05522156507,633.0062256,0.05351048708,633.0062256,0.05290258676,
632.012085,0.05463369563,632.012085,0.05340573564,632.012085,0.05280072987,
631.0176392,0.05504940078,631.0176392,0.05318413675,631.0176392,0.05269083008,
629.986145,0.05507881567,629.986145,0.05334441364,629.986145,0.05256862566,
628.9911499,0.0549448058,628.9911499,0.05296761915,628.9911499,0.05264880508,
627.9959106,0.05479841307,627.9959106,0.05324915051,627.9959106,0.05259866267,
627.0003662,0.05500135943,627.0003662,0.05324168876,627.0003662,0.05269708112,
626.0046387,0.05530582368,626.0046387,0.05338094011,626.0046387,0.05253952742,
625.0085449,0.05543879792,625.0085449,0.05346923321,625.0085449,0.05264462531,
624.012207,0.0554134734,624.012207,0.05327920616,624.012207,0.05263597518,
623.015564,0.05538392067,623.015564,0.05331180617,623.015564,0.05273598433,
621.9817505,0.05540715158,621.9817505,0.05339121446,621.9817505,0.05265055969,
620.9845581,0.05547735468,620.9845581,0.05372554436,620.9845581,0.0528018102,
619.9871826,0.0552138947,619.9871826,0.05351502448,619.9871826,0.05274957418,
618.9893799,0.05539753661,618.9893799,0.0534160696,618.9893799,0.05278301239,
617.9914551,0.05539794639,617.9914551,0.05377282947,617.9914551,0.05272052065,
616.9931641,0.05568214878,616.9931641,0.0536249876,616.9931641,0.05284408107,
615.9946289,0.05543650314,615.9946289,0.05364229903,615.9946289,0.05304971337,
614.9957886,0.05539876968,614.9957886,0.05373336747,614.9957886,0.05287405103,
613.9967041,0.0555540733,613.9967041,0.05393487588,613.9967041,0.05287501588,
612.9974365,0.05534719303,612.9974365,0.0539634563,612.9974365,0.05272861943,
611.9976807,0.05549279973,611.9976807,0.05401639268,611.9976807,0.05296001583,
610.9979248,0.05552333221,610.9979248,0.05391002446,610.9979248,0.0528113097,
609.9976807,0.05559261143,609.9976807,0.05420187488,609.9976807,0.05304573476,
608.9973145,0.05612551793,608.9973145,0.05458208919,608.9973145,0.05346288159,
607.996582,0.05612422153,607.996582,0.05450440198,607.996582,0.05339844525,
606.9956665,0.05605523661,606.9956665,0.05469930917,606.9956665,0.05329489335,
605.9944458,0.05601174012,605.9944458,0.05429458618,605.9944458,0.05322787911,
604.9929199,0.05623749644,604.9929199,0.05449198559,604.9929199,0.05348489806,
603.9911499,0.0564671196,603.9911499,0.05454525352,603.9911499,0.05356243253,
602.9891968,0.05648566037,602.9891968,0.05470392108,602.9891968,0.05372621864,
601.9868774,0.05645349994,601.9868774,0.05491246283,601.9868774,0.053617578,
600.984314,0.05647501722,600.984314,0.05501522869,600.984314,0.05375724286,
599.9815063,0.05667249858,599.9815063,0.05490358919,599.9815063,0.05378777161,
599.015564,0.05661976337,599.015564,0.05515357852,599.015564,0.05376489088,
598.0122681,0.05672892183,598.0122681,0.05487486348,598.0122681,0.05372085795,
597.008667,0.05719766393,597.008667,0.05545706302,597.008667,0.05419527739,
596.0048218,0.05716264248,596.0048218,0.0556313023,596.0048218,0.05434959009,
595.0006714,0.05735142529,595.0006714,0.05564530939,595.0006714,0.05424997583,
593.9963989,0.05742696673,593.9963989,0.05586493015,593.9963989,0.05436223373,
592.9916992,0.05758846179,592.9916992,0.05592846498,592.9916992,0.05467538163,
591.9868164,0.05754708499,591.9868164,0.05582739413,591.9868164,0.0544767864,
590.9816284,0.05743009597,590.9816284,0.05607158318,590.9816284,0.05473057926,
590.0134888,0.05771613494,590.0134888,0.05618661642,590.0134888,0.05484043807,
589.0078125,0.05763309449,589.0078125,0.05616667122,589.0078125,0.05493061617,
588.0018921,0.05787131935,588.0018921,0.05630877987,588.0018921,0.05509356782,
586.9956665,0.05784958228,586.9956665,0.05636754632,586.9956665,0.05496971682,
585.9891968,0.05790631101,585.9891968,0.05654875562,585.9891968,0.05501757562,
584.9825439,0.05794920027,584.9825439,0.05649875104,584.9825439,0.05486869439,
584.0128784,0.0579540804,584.0128784,0.05669119582,584.0128784,0.05504458025,
583.0056763,0.05810719356,583.0056763,0.05685377494,583.0056763,0.05525190383,
581.9981689,0.05825585872,581.9981689,0.0569209978,581.9981689,0.05540774018,
580.9904785,0.05827314407,580.9904785,0.05712036043,580.9904785,0.055297032,
579.9824829,0.05825422704,579.9824829,0.05715464056,579.9824829,0.0552536957,
579.0115967,0.05807452276,579.0115967,0.05693386495,579.0115967,0.05538950861,
578.0031738,0.05802528933,578.0031738,0.05680255592,578.0031738,0.05526225269,
576.9944458,0.05816694349,576.9944458,0.05684870109,576.9944458,0.05521110073,
575.9854126,0.05803307146,575.9854126,0.05695345998,575.9854126,0.0552817136,
575.0136108,0.05809991062,575.0136108,0.05715124682,575.0136108,0.0553885065,
574.0041504,0.05814684555,574.0041504,0.05680161342,574.0041504,0.05524614081,
572.9943848,0.05803188682,572.9943848,0.05684395134,572.9943848,0.05518802628,
571.984436,0.05827989429,571.984436,0.05708094686,571.984436,0.05533222482,
571.0115967,0.05822717398,571.0115967,0.05708206818,571.0115967,0.05519725755,
570.0011597,0.05819088593,570.0011597,0.05694658309,570.0011597,0.05531417206,
568.9904175,0.05823152512,568.9904175,0.05692807958,568.9904175,0.05514132231,
568.0169067,0.05819446594,568.0169067,0.0568500869,568.0169067,0.05507743359,
567.0056763,0.05825644732,567.0056763,0.0569043532,567.0056763,0.05511939898,
565.9942017,0.05857632682,565.9942017,0.05704759061,565.9942017,0.05524661392,
564.9824829,0.05852119997,564.9824829,0.05688301846,564.9824829,0.05502086878,
564.0080566,0.05839234218,564.0080566,0.05664722249,564.0080566,0.05499339849,
562.9957886,0.05856687576,562.9957886,0.05668057874,562.9957886,0.05474646762,
561.9833984,0.0584859252,561.9833984,0.05664085224,561.9833984,0.05481212959,
561.0081787,0.05867477879,561.0081787,0.05672322959,561.0081787,0.05491296202,
559.9953003,0.05864088237,559.9953003,0.05663990602,559.9953003,0.05495088547,
558.9820557,0.05860156938,558.9820557,0.05657320097,558.9820557,0.05495264754,
558.0062256,0.05858521536,558.0062256,0.05670915917,558.0062256,0.05512295291,
556.9924927,0.05891538411,556.9924927,0.0568106994,556.9924927,0.05537124723,
556.0161743,0.05890643224,556.0161743,0.05692250282,556.0161743,0.05533372611,
555.0020752,0.0589517355,555.0020752,0.05676269904,555.0020752,0.05536933616,
553.9876709,0.05890183896,553.9876709,0.05681601167,553.9876709,0.05530761555,
553.0106201,0.05909965187,553.0106201,0.05689874664,553.0106201,0.05560741201,
551.9957886,0.05920575559,551.9957886,0.05696491152,551.9957886,0.05577158555,
551.0183105,0.05918751284,551.0183105,0.05690202117,551.0183105,0.05564398319,
550.0029907,0.05940507352,550.0029907,0.05697131529,550.0029907,0.05579269305,
548.9873657,0.05976138264,548.9873657,0.05726068467,548.9873657,0.05594289303,
548.0091553,0.05992565304,548.0091553,0.05745990947,548.0091553,0.05615674332,
546.993103,0.06036468968,546.993103,0.05783725157,546.993103,0.05669343844,
546.0145264,0.06063183397,546.0145264,0.05806600302,546.0145264,0.05694269016,
544.9979858,0.06084335968,544.9979858,0.05832305923,544.9979858,0.05716922879,
543.9812012,0.0611086227,543.9812012,0.05863691121,543.9812012,0.0573788397,
543.0018921,0.06150110438,543.0018921,0.05911640823,543.0018921,0.0579248257,
541.9846191,0.06179028749,541.9846191,0.05950481072,541.9846191,0.05824756995,
541.0048218,0.06258716434,541.0048218,0.06037584692,541.0048218,0.05929256976,
539.9872437,0.06281810254,539.9872437,0.06070309505,539.9872437,0.05956089497,
539.006958,0.06308861077,539.006958,0.06108281761,539.006958,0.05981040001,
537.9888306,0.06348696351,537.9888306,0.0613679029,537.9888306,0.06014063954,
537.0081177,0.06406319141,537.0081177,0.06199885532,537.0081177,0.0607506074,
535.9894409,0.06479647756,535.9894409,0.06270685792,535.9894409,0.06141632423,
535.0083618,0.0650183484,535.0083618,0.06312099844,535.0083618,0.06182437018,
533.9892578,0.06550394744,533.9892578,0.06348169595,533.9892578,0.06231764704,
533.0076904,0.06645157188,533.0076904,0.06441671401,533.0076904,0.06319192052,
531.9882202,0.06673896313,531.9882202,0.0648977682,531.9882202,0.06353349984,
531.0061646,0.06721166521,531.0061646,0.06524655223,531.0061646,0.06387218833,
529.986145,0.06779312342,529.986145,0.06597289443,529.986145,0.06441865861,
529.0036621,0.06870658696,529.0036621,0.06680450588,529.0036621,0.06536277384,
527.9832764,0.06960093975,527.9832764,0.0677581206,527.9832764,0.06620720774,
527.0003662,0.06982332468,527.0003662,0.06801855564,527.0003662,0.0663575232,
526.0172729,0.07024440169,526.0172729,0.06839437038,526.0172729,0.0667777285,
524.9961548,0.07094727457,524.9961548,0.06915259361,524.9961548,0.06746291369,
524.0125732,0.07120002806,524.0125732,0.06939619035,524.0125732,0.06778704375,
522.9909668,0.07168633491,522.9909668,0.06990727037,522.9909668,0.06819348782,
522.0070801,0.07203312963,522.0070801,0.07028426975,522.0070801,0.06878330559,
520.9849854,0.07248774171,520.9849854,0.07103475928,520.9849854,0.06926394254,
520.0006104,0.07277658582,520.0006104,0.07150803506,520.0006104,0.06966621429,
519.0159912,0.07322943211,519.0159912,0.07196603715,519.0159912,0.07019096613,
517.9932861,0.07385046035,517.9932861,0.0726852268,517.9932861,0.07081961632,
517.0082397,0.07404532284,517.0082397,0.07303989679,517.0082397,0.07112643868,
515.9851074,0.07449699938,515.9851074,0.07347278297,515.9851074,0.07151646167,
514.9996338,0.07476353645,514.9996338,0.07393012196,514.9996338,0.07184237987,
514.0139771,0.0750631988,514.0139771,0.0742013827,514.0139771,0.07212988287,
512.9901123,0.07562224567,512.9901123,0.07465814799,512.9901123,0.07259542495,
512.0039673,0.07613559067,512.0039673,0.07507575303,512.0039673,0.07295118272,
511.0176392,0.07645077258,511.0176392,0.07541880012,511.0176392,0.07332157344,
509.9931946,0.0768366456,509.9931946,0.07585412264,509.9931946,0.0736977756,
509.0064392,0.07718603313,509.0064392,0.07620349526,509.0064392,0.07397907972,
507.9815369,0.07759322971,507.9815369,0.0764702186,507.9815369,0.0743624866,
506.9943542,0.07772435248,506.9943542,0.07663036883,506.9943542,0.07450754195,
506.007019,0.07791947573,506.007019,0.07683454454,506.007019,0.07480529696,
504.9814148,0.07826390862,504.9814148,0.07705420256,504.9814148,0.07501347363,
503.9936523,0.07843650132,503.9936523,0.07719898969,503.9936523,0.07529292256,
503.0055847,0.07878227532,503.0055847,0.07749476284,503.0055847,0.0757266432,
502.0173645,0.07898883522,502.0173645,0.07775451243,502.0173645,0.07599575818,
500.9910278,0.07903078198,500.9910278,0.07783988118,500.9910278,0.07617856562,
500.0023499,0.07902830094,500.0023499,0.0779369399,500.0023499,0.07622505724,
499.0135498,0.07907866687,499.0135498,0.07802023739,499.0135498,0.0763945654,
497.9864807,0.07894083112,497.9864807,0.07797748595,497.9864807,0.07648979127,
496.9972534,0.07890882343,496.9972534,0.07812521607,496.9972534,0.0765613243,
496.0078125,0.07905767113,496.0078125,0.07824183255,496.0078125,0.07670007646,
495.018219,0.07891528308,495.018219,0.07814377546,495.018219,0.07667110115,
493.9902039,0.07893865556,493.9902039,0.07812313735,493.9902039,0.07676957548,
493.0001526,0.078927733,493.0001526,0.07816794515,493.0001526,0.07668985426,
492.0098572,0.07906015962,492.0098572,0.078384161,492.0098572,0.07688747346,
490.9813843,0.07950766385,490.9813843,0.07881499082,490.9813843,0.07739569247,
489.9907227,0.07929362357,489.9907227,0.07858645916,489.9907227,0.07710663229,
488.9998474,0.07948204875,488.9998474,0.07872722298,488.9998474,0.07716336846,
488.0087585,0.07971652597,488.0087585,0.07905966043,488.0087585,0.07746499777,
487.0175476,0.08026724309,487.0175476,0.07958368212,487.0175476,0.0779517144,
485.9879456,0.0802038461,485.9879456,0.07963657379,485.9879456,0.07790064067,
484.9963074,0.0801723972,484.9963074,0.07951229811,484.9963074,0.07785096765,
484.0044556,0.08101842552,484.0044556,0.08034554124,484.0044556,0.07868298143,
483.0123596,0.08147994429,483.0123596,0.08104559034,483.0123596,0.07933595031,
481.9819946,0.0814999342,481.9819946,0.08100307733,481.9819946,0.07927452028,
480.989502,0.08179602772,480.989502,0.08144550025,480.989502,0.07980501652,
479.9967957,0.08232160658,479.9967957,0.08182543516,479.9967957,0.08008128405,
479.0039368,0.08272789419,479.0039368,0.08241094649,479.0039368,0.0806338042,
478.0109558,0.08326347172,478.0109558,0.08283958584,478.0109558,0.08135564625,
477.0176697,0.08385642618,477.0176697,0.08345347643,477.0176697,0.08184181154,
475.9860229,0.08447716385,475.9860229,0.08423724771,475.9860229,0.08259593695,
474.9924316,0.08522057533,474.9924316,0.08487536758,474.9924316,0.08342771977,
473.9985657,0.08614899963,473.9985657,0.08564796299,473.9985657,0.08423416317,
473.0045166,0.08687867969,473.0045166,0.08651837707,473.0045166,0.08491609246,
472.0103455,0.08757098019,472.0103455,0.08713809401,472.0103455,0.08563172817,
471.0158691,0.08836768568,471.0158691,0.08783660829,471.0158691,0.08637493849,
469.9830933,0.08900570869,469.9830933,0.08845288306,469.9830933,0.08714375645,
468.9882813,0.0895941779,468.9882813,0.08924233168,468.9882813,0.0878411755,
467.9932861,0.09056784958,467.9932861,0.08983112127,467.9932861,0.08860620856,
466.9981384,0.09130126238,466.9981384,0.09058759362,466.9981384,0.08943986148,
466.0027466,0.09188466519,466.0027466,0.0912841782,466.0027466,0.09008485079,
465.0072021,0.09249258786,465.0072021,0.0918200314,465.0072021,0.0906733498,
464.0114136,0.09315284342,464.0114136,0.09248576313,464.0114136,0.091418989,
463.0155029,0.093771182,463.0155029,0.09312455356,463.0155029,0.09193095565,
461.9810181,0.09442646801,461.9810181,0.0936788395,461.9810181,0.09257926792,
460.9847107,0.09478856623,460.9847107,0.09421055019,460.9847107,0.09303811193,
459.9881897,0.09551766515,459.9881897,0.09486076236,459.9881897,0.09368121624,
458.9915466,0.09636154026,458.9915466,0.09559227526,458.9915466,0.09451553226,
457.9945984,0.09673573077,457.9945984,0.09605228156,457.9945984,0.09494891763,
456.9975281,0.09715100378,456.9975281,0.09648804367,456.9975281,0.09542801231,
456.0002747,0.09771353751,456.0002747,0.09701278806,456.0002747,0.0958411023,
455.0028076,0.09814473987,455.0028076,0.09733856469,455.0028076,0.09636744857,
454.005188,0.09856624156,454.005188,0.0977711156,454.005188,0.09666726738,
453.0073853,0.09890156984,453.0073853,0.09800451994,453.0073853,0.09698854387,
452.0093994,0.09943724424,452.0093994,0.09858839214,452.0093994,0.0975144133,
451.0112,0.09974963963,451.0112,0.09894282371,451.0112,0.09786618501,
450.0128174,0.1000334844,450.0128174,0.09925466776,450.0128174,0.09822155535,
449.0143127,0.100399211,449.0143127,0.09962716699,449.0143127,0.09853229672,
448.0155945,0.1007365137,448.0155945,0.100041762,448.0155945,0.09893271327,
447.0166626,0.1011691988,447.0166626,0.1006112471,447.0166626,0.09941654652,
446.0175171,0.101716809,446.0175171,0.101155445,446.0175171,0.09988036007,
445.0182495,0.1018948257,445.0182495,0.1014131606,445.0182495,0.1001389623,
444.0188293,0.1020857245,444.0188293,0.1016474217,444.0188293,0.100331597,
443.0191345,0.1022776216,443.0191345,0.1018313691,443.0191345,0.1005025208,
441.980896,0.1024319828,441.980896,0.102008678,441.980896,0.1006883383,
440.980896,0.1029289141,440.980896,0.1025380418,440.980896,0.1010056213,
440.0191956,0.1032963395,440.0191956,0.102886036,440.0191956,0.1013299003,
439.0187988,0.1034535244,439.0187988,0.1030644402,439.0187988,0.1014923602,
438.01828,0.1035491228,438.01828,0.103112787,438.01828,0.1015910581,
437.0175476,0.1036533564,437.0175476,0.1033376455,437.0175476,0.1017209589,
436.0166321,0.1039334759,436.0166321,0.1034758613,436.0166321,0.1018964648,
435.015564,0.1042061448,435.015564,0.1037869975,435.015564,0.102219902,
434.0143433,0.1043905243,434.0143433,0.1040879637,434.0143433,0.1023701131,
433.0129395,0.1045319661,433.0129395,0.1043916419,433.0129395,0.1026544571,
432.0112915,0.1048065946,432.0112915,0.1046723425,432.0112915,0.1028335541,
431.009491,0.104978703,431.009491,0.1049144864,431.009491,0.1030103564,
430.0075684,0.1050886139,430.0075684,0.1052068397,430.0075684,0.103283003,
429.0054321,0.1053695679,429.0054321,0.1054078415,429.0054321,0.1034603864,
428.0031128,0.1055542082,428.0031128,0.1056615636,428.0031128,0.1036706045,
427.0006409,0.1058055684,427.0006409,0.1058590412,427.0006409,0.103968963,
425.9980164,0.1062081605,425.9980164,0.1061710045,425.9980164,0.1042658091,
424.9951477,0.1064559966,424.9951477,0.1066160202,424.9951477,0.1044938043,
423.992157,0.1069468334,423.992157,0.1069207042,423.992157,0.1048001051,
422.9889832,0.1069240496,422.9889832,0.1069452763,422.9889832,0.1048014835,
421.9856567,0.1073560789,421.9856567,0.1073620841,421.9856567,0.1051017046,
420.9821167,0.107791163,420.9821167,0.1077663153,420.9821167,0.1054767445,
420.0170593,0.1083622724,420.0170593,0.1081849709,420.0170593,0.1059265658,
419.0131531,0.1084174961,419.0131531,0.1083690524,419.0131531,0.1059766486,
418.0091858,0.1087766513,418.0091858,0.1086033359,418.0091858,0.1062629744,
417.0049133,0.1090405658,417.0049133,0.108887367,417.0049133,0.1065198034,
416.0006104,0.1092761457,416.0006104,0.1090964377,416.0006104,0.1067069247,
414.9960327,0.1096445471,414.9960327,0.109408468,414.9960327,0.1069795489,
413.991394,0.1101216525,413.991394,0.1097912788,413.991394,0.1073942333,
412.9864807,0.1103600189,412.9864807,0.1100138873,412.9864807,0.1076520681,
411.9814453,0.1106318161,411.9814453,0.110306859,411.9814453,0.1079125851,
411.0149231,0.1109770685,411.0149231,0.110604763,411.0149231,0.1082737148,
410.009552,0.1116050631,410.009552,0.1110689193,410.009552,0.1088086069,
409.0039673,0.1119441614,409.0039673,0.1114101037,409.0039673,0.1091535464,
407.998291,0.1122355461,407.998291,0.1116514951,407.998291,0.1094226241,
406.9924316,0.1126230732,406.9924316,0.1119511575,406.9924316,0.1098407134,
405.9863892,0.1130894646,405.9863892,0.1123921126,405.9863892,0.1102996171,
405.0188904,0.1136066914,405.0188904,0.1128948778,405.0188904,0.1108414233,
404.0125427,0.1143179834,404.0125427,0.1136146262,404.0125427,0.111635156,
403.0060425,0.1147989109,403.0060425,0.1140783727,403.0060425,0.1122009233,
401.9992981,0.115278475,401.9992981,0.114580974,401.9992981,0.1126324683,
400.9924316,0.1159426495,400.9924316,0.1151253507,400.9924316,0.1133414656,
399.9854431,0.1165167019,399.9854431,0.1158172414,399.9854431,0.1137901917,
399.0169983,0.1172428802,399.0169983,0.1164454818,399.0169983,0.1146576554,
398.0096741,0.1178640872,398.0096741,0.1170856804,398.0096741,0.1153157055,
397.0021973,0.11849989,397.0021973,0.1175706312,397.0021973,0.1159639806,
395.9945374,0.1192205101,395.9945374,0.1182827055,395.9945374,0.1166813523,
394.9867249,0.119740963,394.9867249,0.1188053042,394.9867249,0.1173507571,
394.0174866,0.1208822504,394.0174866,0.1197713539,394.0174866,0.1184740439,
393.0093384,0.1216787398,393.0093384,0.1206579655,393.0093384,0.1193230823,
392.0010681,0.1224061325,392.0010681,0.1213183776,392.0010681,0.1199989393,
390.9925842,0.1237106472,390.9925842,0.1226547435,390.9925842,0.1214547977,
389.9839478,0.1242734566,389.9839478,0.1232073158,389.9839478,0.1221206337,
389.0140076,0.1250703633,389.0140076,0.1240111813,389.0140076,0.1230599657,
388.0050964,0.1258987188,388.0050964,0.124928385,388.0050964,0.1240123138,
386.9960022,0.1270362735,386.9960022,0.1259269118,386.9960022,0.1251994669,
385.9867859,0.1280355603,385.9867859,0.1268328428,385.9867859,0.126148954,
385.0162048,0.128937766,385.0162048,0.1278171837,385.0162048,0.1269692034,
384.0066223,0.1297819912,384.0066223,0.1286775321,384.0066223,0.1281300932,
382.9969177,0.1307779253,382.9969177,0.1294593662,382.9969177,0.128984198,
381.9870605,0.1315915585,381.9870605,0.1301442832,381.9870605,0.1298146248,
381.0158997,0.1322884411,381.0158997,0.1310921758,381.0158997,0.1306930333,
380.0057373,0.1335180104,380.0057373,0.1320509613,380.0057373,0.1317158192,
378.9954224,0.1345176548,378.9954224,0.133156091,378.9954224,0.1326614022,
377.9848938,0.1355538219,377.9848938,0.1340968162,377.9848938,0.1338144541,
377.0131836,0.137003094,377.0131836,0.1353815794,377.0131836,0.1351902783,
376.0024109,0.1375953555,376.0024109,0.1359541714,376.0024109,0.1357931197,
374.9914551,0.1386053711,374.9914551,0.1367961913,374.9914551,0.1366574913,
374.0192566,0.1394511163,374.0192566,0.1379940212,374.0192566,0.1377722025,
373.0080261,0.1404884309,373.0080261,0.1389476806,373.0080261,0.1388759762,
371.9966431,0.1418316066,371.9966431,0.1403910816,371.9966431,0.1400876492,
370.9851074,0.143078506,370.9851074,0.1415587515,370.9851074,0.1412460208,
370.0123596,0.1441319734,370.0123596,0.1424988657,370.0123596,0.1423583329,
369.0005188,0.14494057,369.0005188,0.1436218619,369.0005188,0.1432624757,
367.9885559,0.1460643262,367.9885559,0.1444556415,367.9885559,0.1441916823,
367.0153503,0.1471889913,367.0153503,0.1456077397,367.0153503,0.1451977491,
366.0030518,0.1481488049,366.0030518,0.1468455195,366.0030518,0.1462469101,
364.9906311,0.1492299736,364.9906311,0.1479542404,364.9906311,0.1473573744,
364.0169983,0.1500779092,364.0169983,0.148783952,364.0169983,0.1482920349,
363.0043335,0.1512759179,363.0043335,0.149715662,363.0043335,0.1493195593,
361.9914246,0.1522475779,361.9914246,0.1509107351,361.9914246,0.150141865,
361.0173645,0.1530371159,361.0173645,0.1518476456,361.0173645,0.1509430557,
360.0042419,0.1535502374,360.0042419,0.1522469819,360.0042419,0.1514485627,
358.9909363,0.1545534581,358.9909363,0.153299436,358.9909363,0.1523823738,
358.0164795,0.1551840752,358.0164795,0.1538883895,358.0164795,0.1529838741,
357.0028992,0.1564136744,357.0028992,0.1548800766,357.0028992,0.1539474875,
355.9891663,0.1569538713,355.9891663,0.1553735286,355.9891663,0.1544260383,
355.0142822,0.1575413942,355.0142822,0.1561805457,355.0142822,0.1551522017,
354.0002747,0.1582877338,354.0002747,0.1569257379,354.0002747,0.1558752209,
352.9861145,0.1590718478,352.9861145,0.1578427553,352.9861145,0.1565972865,
352.0108032,0.1595758498,352.0108032,0.158540085,352.0108032,0.1574562341,
350.9963989,0.1602666676,350.9963989,0.159139812,350.9963989,0.1579447389,
349.9818115,0.1611332744,349.9818115,0.1599408686,349.9818115,0.1586990952,
349.0061035,0.1619381011,349.0061035,0.1608930975,349.0061035,0.1593404561,
347.9912109,0.1625497341,347.9912109,0.1614821553,347.9912109,0.1602010727,
347.0152588,0.163083747,347.0152588,0.1622486562,347.0152588,0.1609873772,
346.0001526,0.1641010642,346.0001526,0.163234815,346.0001526,0.1618092954,
344.9848328,0.1648071706,344.9848328,0.1639125496,344.9848328,0.162584275,
344.0084839,0.1658283174,344.0084839,0.1648371369,344.0084839,0.1633139849,
342.9929199,0.1665359139,342.9929199,0.1656037569,342.9929199,0.1642113775,
342.0163269,0.1673199981,342.0163269,0.1662822515,342.0163269,0.164798364,
341.0004883,0.1682121456,341.0004883,0.167184934,341.0004883,0.1655563116,
339.9845276,0.1689880043,339.9845276,0.1681408435,339.9845276,0.166500926,
339.0074768,0.1697885841,339.0074768,0.1689244807,339.0074768,0.1672738791,
337.9912415,0.1709076464,337.9912415,0.1700104624,337.9912415,0.1684630811,
337.0139465,0.1719377935,337.0139465,0.1711144,337.0139465,0.1693555564,
335.9974365,0.1729996055,335.9974365,0.1721066982,335.9974365,0.1703469157,
334.9808044,0.1738777012,334.9808044,0.173154965,334.9808044,0.1716007143,
334.0031128,0.174965933,334.0031128,0.1740480661,334.0031128,0.1723673642,
332.9861755,0.1761932671,332.9861755,0.1754355282,332.9861755,0.173749432,
332.0082703,0.1774319857,332.0082703,0.1765358001,332.0082703,0.1748197973,
330.9911194,0.1784493178,330.9911194,0.1777747124,330.9911194,0.1759985685,
330.0129089,0.1798180342,330.0129089,0.1790879369,330.0129089,0.1771491915,
328.9954529,0.1811031252,328.9954529,0.1804498434,328.9954529,0.1785126776,
328.0170288,0.1825543344,328.0170288,0.1817896962,328.0170288,0.1797257811,
326.9993286,0.1839947999,326.9993286,0.183140859,326.9993286,0.1812715083,
325.9814758,0.1858222038,325.9814758,0.1850372255,325.9814758,0.1828662753,
325.002655,0.187345311,325.002655,0.186762169,325.002655,0.1844186634,
323.9845581,0.1893910766,323.9845581,0.188815698,323.9845581,0.1865864694,
323.0054932,0.191477865,323.0054932,0.1907427609,323.0054932,0.1883677095,
321.9871216,0.1935503781,321.9871216,0.1927040815,321.9871216,0.1904191822,
321.007782,0.1956598908,321.007782,0.1947920024,321.007782,0.1924297214,
319.9891663,0.1978458315,319.9891663,0.1968699396,319.9891663,0.1948076487,
319.009613,0.2004804611,319.009613,0.1995517612,319.009613,0.1971862167,
317.9907837,0.2031822205,317.9907837,0.2022770941,317.9907837,0.199953422,
317.0109253,0.2057771981,317.0109253,0.2048517466,317.0109253,0.2026346773,
315.9918213,0.2087289393,315.9918213,0.2078971118,315.9918213,0.2055264413,
315.0117493,0.2114759386,315.0117493,0.2105785012,315.0117493,0.2084068358,
313.9924011,0.214480415,313.9924011,0.2138588578,313.9924011,0.2115782648,
313.0121155,0.2176990807,313.0121155,0.2171172351,313.0121155,0.2147541791,
311.9924622,0.2208412141,311.9924622,0.2202278078,311.9924622,0.2179913074,
311.0119324,0.2242954969,311.0119324,0.2234235108,311.0119324,0.2213457078,
309.9920654,0.2277875245,309.9920654,0.2271962613,309.9920654,0.2250569463,
309.0112915,0.2314314395,309.0112915,0.2305896133,309.0112915,0.2286152542,
307.9911499,0.2353456914,307.9911499,0.2342914343,307.9911499,0.2323903888,
307.0101624,0.2384757251,307.0101624,0.2373780906,307.0101624,0.235582605,
305.9897461,0.2416034192,305.9897461,0.2403590381,305.9897461,0.2386069149,
305.0085449,0.2445245683,305.0085449,0.2433202565,305.0085449,0.241645053,
303.987915,0.2475500703,303.987915,0.246300742,303.987915,0.2447272986,
303.0064392,0.250893563,303.0064392,0.2495688349,303.0064392,0.2480170727,
301.9855652,0.2539702952,301.9855652,0.2524995208,301.9855652,0.2510685623,
301.0038452,0.2564473152,301.0038452,0.2550581694,301.0038452,0.2536235452,
299.9827881,0.2588101625,299.9827881,0.2573231161,299.9827881,0.2558633685,
299.0008545,0.2611056268,299.0008545,0.2596144378,299.0008545,0.2582399547,
298.0187683,0.2631131709,298.0187683,0.2615948319,298.0187683,0.2603099644,
296.9973145,0.2654963732,296.9973145,0.2640374601,296.9973145,0.2626941502,
296.0150452,0.2679601908,296.0150452,0.2664529979,296.0150452,0.2650901377,
294.9933472,0.2708268464,294.9933472,0.2693677843,294.9933472,0.2680664361,
294.0108337,0.2740611732,294.0108337,0.2726848125,294.0108337,0.2713516355,
292.9888916,0.2776349187,292.9888916,0.2762865722,292.9888916,0.2748124003,
292.0061646,0.2813214064,292.0061646,0.2797900438,292.0061646,0.2782901824,
290.9840393,0.284648329,290.9840393,0.283138454,290.9840393,0.2818828523,
290.0010681,0.2894289196,290.0010681,0.2879277766,290.0010681,0.2864623368,
289.0180054,0.2962091267,289.0180054,0.2949945629,289.0180054,0.2932335436,
287.9954834,0.3056693077,287.9954834,0.3042811453,287.9954834,0.3026405573,
287.0121765,0.3158065975,287.0121765,0.3144423962,287.0121765,0.3128490746,
285.9894104,0.3291581571,285.9894104,0.3274703622,285.9894104,0.3257681131,
285.0059204,0.3480863869,285.0059204,0.3461824358,285.0059204,0.3445152044,
283.9829712,0.3749130666,283.9829712,0.3727882504,283.9829712,0.371342659,
282.9992676,0.4126912355,282.9992676,0.4116240144,282.9992676,0.4105965197,
282.0154114,0.4492899477,282.0154114,0.4486194849,282.0154114,0.4467051327,
280.9920654,0.4914909303,280.9920654,0.4905330837,280.9920654,0.4882745445,
280.0080566,0.5337899923,280.0080566,0.5336868167,280.0080566,0.5320295095,
278.9845276,0.5741900802,278.9845276,0.5735794902,278.9845276,0.5722795725,
278.0002747,0.6038312912,278.0002747,0.6029161811,278.0002747,0.601082623,
277.0158997,0.6282297969,277.0158997,0.6262823939,277.0158997,0.6252897978,
275.9920044,0.6525006294,275.9920044,0.6515751481,275.9920044,0.6496378779,
275.0074463,0.6780296564,275.0074463,0.6766582131,275.0074463,0.6748667359,
273.9833679,0.6993148923,273.9833679,0.6980959773,273.9833679,0.6964548826,
272.9985657,0.7091746926,272.9985657,0.7075670958,272.9985657,0.7059794664,
272.0137024,0.7119634151,272.0137024,0.7103940248,272.0137024,0.7087318897,
270.9892883,0.7161569595,270.9892883,0.7143326998,270.9892883,0.7129651308,
270.0041504,0.7200717926,270.0041504,0.7183154225,270.0041504,0.7168283463,
269.0189514,0.7225450873,269.0189514,0.7205001116,269.0189514,0.719094038,
267.9942322,0.7190939188,267.9942322,0.7172623873,267.9942322,0.7156424522,
267.0088196,0.7108307481,267.0088196,0.7088577151,267.0088196,0.7074872851,
265.9838867,0.7013168931,265.9838867,0.699443996,265.9838867,0.6978914142,
264.9982605,0.687710166,264.9982605,0.6853790283,264.9982605,0.6840845346,
264.0125427,0.673892796,264.0125427,0.6715890765,264.0125427,0.6700483561,
262.9872742,0.662496686,262.9872742,0.6603192687,262.9872742,0.6587826014,
262.0013733,0.653644681,262.0013733,0.6517538428,262.0013733,0.649776876,
261.0153198,0.6450361013,261.0153198,0.6431649327,261.0153198,0.641242981,
259.9897766,0.6396450996,259.9897766,0.6376731396,259.9897766,0.6358014941,
259.00354,0.6335995793,259.00354,0.6316406727,259.00354,0.6299769878,
258.0172424,0.6258435249,258.0172424,0.6242242455,258.0172424,0.6222342849,
256.9913635,0.6201509833,256.9913635,0.618452847,256.9913635,0.6162397861,
256.0048523,0.6164188981,256.0048523,0.6146156192,256.0048523,0.6123979688,
255.0182037,0.6147081256,255.0182037,0.6125128865,255.0182037,0.610476613,
253.9920349,0.6157460809,253.9920349,0.6139108539,253.9920349,0.611700356,
253.0052643,0.6186850071,253.0052643,0.6169116497,253.0052643,0.6147443652,
252.0183411,0.6233631372,252.0183411,0.6220811605,252.0183411,0.6196202636,
250.9918518,0.6325615644,250.9918518,0.6307455897,250.9918518,0.6286099553,
250.0047607,0.6457847357,250.0047607,0.6443443894,250.0047607,0.6419866085,
249.0175476,0.6599137783,249.0175476,0.6581851244,249.0175476,0.6557977796,
247.9907837,0.6775974631,247.9907837,0.6756141186,247.9907837,0.6735475659,
247.0034027,0.6947109103,247.0034027,0.6932971478,247.0034027,0.6913494468,
246.0159149,0.7216267586,246.0159149,0.7197794318,246.0159149,0.7175414562,
244.9888458,0.7658244371,244.9888458,0.7637885809,244.9888458,0.7620093822,
244.0011749,0.8136643171,244.0011749,0.8107911348,244.0011749,0.8097836971,
243.0133972,0.8632257581,243.0133972,0.8606743813,243.0133972,0.858884275,
241.9860687,0.9288737774,241.9860687,0.9276343584,241.9860687,0.925891161,
240.9981232,1.028556466,240.9981232,1.027995586,240.9981232,1.026605725,
240.0100861,1.16119206,240.0100861,1.158620834,240.0100861,1.158086181,
238.9824371,1.321715832,238.9824371,1.31929791,238.9824371,1.31430316,
237.9942169,1.506098866,237.9942169,1.500094533,237.9942169,1.492693067,
237.0058899,1.751172066,237.0058899,1.745926142,237.0058899,1.739589095,
236.0175171,2.018029928,236.0175171,2.014433146,236.0175171,2.019464254,
234.989502,2.351806164,234.989502,2.357143164,234.989502,2.362744331,
234.0009003,2.596674204,234.0009003,2.605381966,234.0009003,2.60509634,
233.0122528,2.884483099,233.0122528,2.832183123,233.0122528,2.851216555,
231.9839172,3.110242605,231.9839172,3.134392738,231.9839172,3.210397005,
230.9950867,3.300495386,230.9950867,3.33604455,230.9950867,3.369750977,
230.0061493,3.399155617,230.0061493,3.428402185,230.0061493,3.380749464,
229.0171204,3.463501215,229.0171204,3.484503746,229.0171204,3.430829763,
227.9884491,3.656036139,227.9884491,3.672584534,227.9884491,3.623322964,
226.9992676,3.722902775,226.9992676,3.674013138,226.9992676,3.748631239,
226.0099945,3.616928339,226.0099945,3.688675404,226.0099945,3.645165682,
224.9810333,3.539387703,224.9810333,3.568705082,224.9810333,3.576287508,
223.9916077,3.552488565,223.9916077,3.513251543,223.9916077,3.554907799,
223.0020447,3.568925858,223.0020447,3.543533325,223.0020447,3.571085691,
222.0124207,3.606170654,222.0124207,3.592394114,222.0124207,3.61649847,
220.9831238,3.564196825,220.9831238,3.521954298,220.9831238,3.538567543,
219.9933319,3.582556486,219.9933319,3.598187685,219.9933319,3.506022453,
219.0034485,3.502009153,219.0034485,3.623744488,219.0034485,3.533828735,
218.013504,3.464635611,218.013504,3.477767706,218.013504,3.509628773,
216.9838562,3.462791681,216.9838562,3.481386185,216.9838562,3.509483337,
215.9937286,3.447647095,215.9937286,3.463152647,215.9937286,3.454693794,
215.00354,3.54728961,215.00354,3.509879351,215.00354,3.48840642,
214.0132141,3.506596327,214.0132141,3.460391283,214.0132141,3.505321026,
212.9832611,3.536278486,212.9832611,3.466745853,212.9832611,3.495716095,
211.9927979,3.536482573,211.9927979,3.530982018,211.9927979,3.467437029,
211.0022888,3.519295931,211.0022888,3.475758553,211.0022888,3.479248762,
210.0116425,3.545511007,210.0116425,3.552667856,210.0116425,3.569078922,
208.9813538,3.498728514,208.9813538,3.515254736,208.9813538,3.487756014,
207.9905701,3.518708229,207.9905701,3.52333045,207.9905701,3.449138165,
206.9997101,3.52870369,206.9997101,3.465257645,206.9997101,3.662134647,
206.0087738,3.583891392,206.0087738,3.539102554,206.0087738,3.550487995,
205.0177765,3.527457714,205.0177765,3.581306934,205.0177765,3.554166555,
203.98703,3.511915684,203.98703,3.570440292,203.98703,3.573032141,
202.9958954,3.551504135,202.9958954,3.502043486,202.9958954,3.572650671,
202.0046539,3.492516994,202.0046539,3.466698647,202.0046539,3.510695934,
201.0133362,3.596643686,201.0133362,3.626993179,201.0133362,3.458611012,
199.9822845,3.436564684,199.9822845,3.438456297,199.9822845,3.366191626,

sample4,
sample4
Collection Time: 15/04/2026 1:40:00 PM
Operator Name  :
Scan Version 5.3.0.1083
Parameter List :
Instrument  Cary 60
Instrument Version  2.00
Start (nm)  800.0
Stop (nm)  200.0
X Mode  Nanometers
Y Mode  Abs
UV-Vis Scan Rate (nm/min)  600.000
UV-Vis Data Interval (nm)  1.00
UV-Vis Ave. Time (sec)  0.1000
Beam Mode  Dual Beam
Baseline Correction  Off
Cycle Mode  Off
Method Log     :
Method Name    :
Date/Time stamp: 15/04/2026 1:06:08 PM
Method Modifications:
UVVIS SAT Changed: 15/04/2026 1:27:59 PM, Old:0.0125, New:0.1000
Common SAT Changed: 15/04/2026 1:27:59 PM, Old:0.0125, New:0.1000
Common Interval nm Changed: 15/04/2026 1:28:02 PM, Old:     5.00, New:     1.00
End Method Modifications
<Current Wavelength> , 202.0

sample5,
sample5
Collection Time: 15/04/2026 1:41:42 PM
Operator Name  :
Scan Version 5.3.0.1083
Parameter List :
Instrument  Cary 60
Instrument Version  2.00
Start (nm)  800.0
Stop (nm)  200.0
X Mode  Nanometers
Y Mode  Abs
UV-Vis Scan Rate (nm/min)  600.000
UV-Vis Data Interval (nm)  1.00
UV-Vis Ave. Time (sec)  0.1000
Beam Mode  Dual Beam
Baseline Correction  Off
Cycle Mode  Off
Method Log     :
Method Name    :
Date/Time stamp: 15/04/2026 1:06:08 PM
Method Modifications:
UVVIS SAT Changed: 15/04/2026 1:27:59 PM, Old:0.0125, New:0.1000
Common SAT Changed: 15/04/2026 1:27:59 PM, Old:0.0125, New:0.1000
Common Interval nm Changed: 15/04/2026 1:28:02 PM, Old:     5.00, New:     1.00
End Method Modifications
<Current Wavelength> , 200.0

sample6,
sample6
Collection Time: 15/04/2026 1:42:46 PM
Operator Name  :
Scan Version 5.3.0.1083
Parameter List :
Instrument  Cary 60
Instrument Version  2.00
Start (nm)  800.0
Stop (nm)  200.0
X Mode  Nanometers
Y Mode  Abs
UV-Vis Scan Rate (nm/min)  600.000
UV-Vis Data Interval (nm)  1.00
UV-Vis Ave. Time (sec)  0.1000
Beam Mode  Dual Beam
Baseline Correction  Off
Cycle Mode  Off
Method Log     :
Method Name    :
Date/Time stamp: 15/04/2026 1:06:08 PM
Method Modifications:
UVVIS SAT Changed: 15/04/2026 1:27:59 PM, Old:0.0125, New:0.1000
Common SAT Changed: 15/04/2026 1:27:59 PM, Old:0.0125, New:0.1000
Common Interval nm Changed: 15/04/2026 1:28:02 PM, Old:     5.00, New:     1.00
End Method Modifications
<Current Wavelength> , 202.0

