sample10,,sample11,,sample12,,
Wavelength (nm),Abs,Wavelength (nm),Abs,Wavelength (nm),Abs,
800.0151978,0.02360359766,800.0151978,0.02346430905,800.0151978,0.02319725417,
799.0057373,0.02352021635,799.0057373,0.02310900949,799.0057373,0.02245614119,
797.9959717,0.02311392315,797.9959717,0.0225777626,797.9959717,0.02270094678,
796.9857178,0.0233130753,796.9857178,0.02291862853,796.9857178,0.02249008045,
796.0099487,0.02297801338,796.0099487,0.02263281867,796.0099487,0.02232228965,
794.9989014,0.02273378707,794.9989014,0.02229569294,794.9989014,0.02287224121,
793.9874878,0.02284050919,793.9874878,0.02290031873,793.9874878,0.02248926274,
793.0105591,0.02312080376,793.0105591,0.02260244079,793.0105591,0.0223867707,
791.9983521,0.02298049629,791.9983521,0.02266568132,791.9983521,0.02200054377,
790.9857178,0.02239958011,790.9857178,0.022082109,790.9857178,0.02217823453,
790.0076294,0.02288642898,790.0076294,0.02265207283,790.0076294,0.02213644795,
788.9942627,0.022272503,788.9942627,0.02284269035,788.9942627,0.02247527801,
788.0154419,0.02250035852,788.0154419,0.02191063575,788.0154419,0.02226337604,
787.0012817,0.02266789041,787.0012817,0.02242948115,787.0012817,0.02189067937,
785.9865723,0.02236439474,785.9865723,0.02218025178,785.9865723,0.0222513862,
785.0067139,0.02231901884,785.0067139,0.02219354548,785.0067139,0.02181527577,
783.991272,0.02248980664,783.991272,0.02195223793,783.991272,0.02149869129,
783.010498,0.02231743746,783.010498,0.02171745896,783.010498,0.02129971795,
781.9944458,0.02191599831,781.9944458,0.022114411,781.9944458,0.02133925073,
781.0128784,0.02224729955,781.0128784,0.0217936635,781.0128784,0.02146686986,
779.9960327,0.02199703082,779.9960327,0.02174094506,779.9960327,0.021316275,
779.0137329,0.02218207717,779.0137329,0.02152140439,779.0137329,0.02134047262,
777.9960327,0.02220929228,777.9960327,0.02211571857,777.9960327,0.02130143158,
777.0130615,0.02203006297,777.0130615,0.02154292166,777.0130615,0.02148987912,
775.9945679,0.02238505334,775.9945679,0.0216995813,775.9945679,0.02117350698,
775.0108032,0.02143755183,775.0108032,0.02178242244,775.0108032,0.02133359388,
773.9916382,0.02167177014,773.9916382,0.02129335701,773.9916382,0.02126233652,
773.0070801,0.02158394456,773.0070801,0.02153723501,773.0070801,0.02178362012,
771.9870605,0.02156843804,771.9870605,0.02147717774,771.9870605,0.0209701173,
771.0018921,0.02189345658,771.0018921,0.02202731185,771.0018921,0.02138917334,
770.0162964,0.02187184058,770.0162964,0.02202099375,770.0162964,0.02143986337,
768.9950562,0.02233144455,768.9950562,0.0222180374,768.9950562,0.02149159275,
768.0087891,0.02245311439,768.0087891,0.02240614966,768.0087891,0.02177877538,
766.9868164,0.02295877226,766.9868164,0.02253040299,766.9868164,0.02225705422,
765.9997559,0.02307302877,765.9997559,0.02280124836,765.9997559,0.02234330028,
765.0123291,0.0234482158,765.0123291,0.02338344045,765.0123291,0.02274917252,
763.9892578,0.02388594486,763.9892578,0.02364670113,763.9892578,0.02306568623,
763.0010986,0.02440217324,763.0010986,0.02374801412,763.0010986,0.02314029634,
762.0126343,0.02404528484,762.0126343,0.02357766032,762.0126343,0.02347810753,
760.9883423,0.02403360233,760.9883423,0.02416781709,760.9883423,0.02349810861,
759.9991455,0.02411702648,759.9991455,0.02358714305,759.9991455,0.02353090048,
759.0095825,0.02332962677,759.0095825,0.02354344353,759.0095825,0.02264489979,
757.9841919,0.02330933325,757.9841919,0.02290331945,757.9841919,0.02284760214,
756.9938965,0.02311263978,756.9938965,0.02246491797,756.9938965,0.02220051922,
756.0031738,0.02284299023,756.0031738,0.02173539437,756.0031738,0.02189362049,
755.012085,0.02232122608,755.012085,0.0217340868,755.012085,0.02151637152,
753.9852905,0.02239074931,753.9852905,0.02116570622,753.9852905,0.02149317041,
752.9934692,0.02221416868,752.9934692,0.0210567601,752.9934692,0.02114526741,
752.0013428,0.02259426005,752.0013428,0.02102287859,752.0013428,0.02104762942,
751.0089111,0.02241062,751.0089111,0.02093355171,751.0089111,0.02116396651,
750.0160522,0.02261629328,750.0160522,0.0209681876,750.0160522,0.02097171918,
748.9873657,0.02225209586,748.9873657,0.021179948,748.9873657,0.02113986015,
747.9937744,0.02229528315,747.9937744,0.02121737599,747.9937744,0.02084038965,
746.9998779,0.02180463262,746.9998779,0.021043038,746.9998779,0.0206956584,
746.0055542,0.02178527974,746.0055542,0.02071238309,746.0055542,0.02071762271,
745.0108643,0.02119019441,745.0108643,0.01997988485,745.0108643,0.02020114288,
744.0159302,0.02094202861,744.0159302,0.01976464503,744.0159302,0.01942870952,
742.9850464,0.02026300505,742.9850464,0.01865659282,742.9850464,0.0190495383,
741.9893799,0.01908800006,741.9893799,0.01834340952,741.9893799,0.0181663353,
740.9933472,0.01856880635,740.9933472,0.01761327498,740.9933472,0.01723202318,
739.9969482,0.01804918051,739.9969482,0.01707847416,739.9969482,0.01701725274,
739.0001831,0.01773268729,739.0001831,0.01655315049,739.0001831,0.01629213803,
738.0031128,0.0170213189,738.0031128,0.01581350714,738.0031128,0.01555986144,
737.0056763,0.01662877761,737.0056763,0.0155388806,737.0056763,0.01513848267,
736.0078735,0.01585418172,736.0078735,0.01506952103,736.0078735,0.01472206414,
735.0097656,0.01550268941,735.0097656,0.01449116133,735.0097656,0.01443383563,
734.0112305,0.01502934936,734.0112305,0.01445575338,734.0112305,0.01368376426,
733.0123901,0.01436627004,733.0123901,0.01404410694,733.0123901,0.01337892469,
732.0131836,0.01404758263,732.0131836,0.01400277391,732.0131836,0.01301918738,
731.0136719,0.013738079,731.0136719,0.01361807808,731.0136719,0.01272270363,
730.013855,0.01341173518,730.013855,0.01341218874,730.013855,0.0125331711,
729.0136108,0.01293357275,729.0136108,0.01327292807,729.0136108,0.01232643705,
728.0130615,0.01260788646,728.0130615,0.01307918038,728.0130615,0.01205086429,
727.012146,0.01250871271,727.012146,0.01300417073,727.012146,0.01187364943,
726.0109253,0.01249488536,726.0109253,0.01292623952,726.0109253,0.01205751859,
725.0092773,0.01271718554,725.0092773,0.01299110055,725.0092773,0.01205552183,
724.0073853,0.01276548766,724.0073853,0.01298936736,724.0073853,0.01205839682,
723.0050659,0.01293378603,723.0050659,0.013136914,723.0050659,0.01231144369,
722.0025635,0.01315844618,722.0025635,0.01323353685,722.0025635,0.0124978954,
720.9995117,0.01345100906,720.9995117,0.01351594925,720.9995117,0.01308422256,
719.9962158,0.01383021194,719.9962158,0.01378422324,719.9962158,0.01333354414,
718.9926147,0.01427715272,718.9926147,0.01402974874,718.9926147,0.01345367916,
717.9885864,0.01459151227,717.9885864,0.01447151601,717.9885864,0.0139533719,
716.984314,0.01497026533,716.984314,0.01491167117,716.984314,0.014601551,
716.015564,0.01557740849,716.015564,0.01521163713,716.015564,0.01501000207,
715.0105591,0.01581683569,715.0105591,0.01571443118,715.0105591,0.01533722691,
714.005249,0.0164053794,714.005249,0.01650170982,714.005249,0.01615299843,
712.9995728,0.01715152524,712.9995728,0.01710451022,712.9995728,0.01684042253,
711.9935913,0.01804526709,711.9935913,0.01776884869,711.9935913,0.01754885167,
710.9873047,0.01860884763,710.9873047,0.01825700887,710.9873047,0.0181334056,
710.0165405,0.01923768781,710.0165405,0.01925903745,710.0165405,0.01867904887,
709.0095825,0.0195479691,709.0095825,0.02002406865,709.0095825,0.01941292733,
708.0021973,0.02044126205,708.0021973,0.02048052661,708.0021973,0.01995142549,
706.9946289,0.0210602656,706.9946289,0.02105352655,706.9946289,0.02091030031,
705.9866333,0.02190832235,705.9866333,0.02197173424,705.9866333,0.02146382444,
705.0142822,0.02276693098,705.0142822,0.02267181873,705.0142822,0.02212451771,
704.0055542,0.02337680198,704.0055542,0.0234150216,704.0055542,0.02298838459,
702.9966431,0.02413013391,702.9966431,0.0242449455,702.9966431,0.02370648645,
701.9873657,0.02505948395,701.9873657,0.02495312132,701.9873657,0.02435833588,
701.0137329,0.02569617704,701.0137329,0.02563433349,701.0137329,0.02510824613,
700.0037231,0.02624951303,700.0037231,0.02628894895,700.0037231,0.02563263103,
698.9934692,0.02704090811,698.9934692,0.02699101903,698.9934692,0.02624937519,
697.9829102,0.02778453939,697.9829102,0.02763342112,697.9829102,0.02726513147,
697.0079956,0.02808685042,697.0079956,0.02854799666,697.0079956,0.02747929469,
695.9967651,0.02891322598,695.9967651,0.02907887846,695.9967651,0.02799271978,
694.9851685,0.0291819647,694.9851685,0.02940848842,694.9851685,0.02869937755,
694.0093994,0.02981383912,694.0093994,0.0301353503,694.0093994,0.02904976159,
692.9971313,0.03023807891,692.9971313,0.03066631779,692.9971313,0.0297419522,
691.9846191,0.0308233574,691.9846191,0.03090890311,691.9846191,0.03037475422,
691.0078125,0.03139019758,691.0078125,0.0312215481,691.0078125,0.03065434471,
689.9946289,0.03166963533,689.9946289,0.03167907521,689.9946289,0.03107662499,
689.017334,0.03219085559,689.017334,0.03212922439,689.017334,0.03166743368,
688.003418,0.03310290724,688.003418,0.0322964415,688.003418,0.03214667365,
686.9891968,0.03345549479,686.9891968,0.03290591761,686.9891968,0.03258025646,
686.0109863,0.03381648287,686.0109863,0.03317624703,686.0109863,0.03298651427,
684.9962158,0.03434143588,684.9962158,0.03348664194,684.9962158,0.03329951316,
684.017334,0.03468446061,684.017334,0.03368831426,684.017334,0.03338915482,
683.0018921,0.03448246419,683.0018921,0.03414046764,683.0018921,0.03392948955,
681.986084,0.0348899141,681.986084,0.03400923684,681.986084,0.03432179615,
681.0062866,0.03525091708,681.0062866,0.03447937965,681.0062866,0.03467015922,
679.9898682,0.03559112176,679.9898682,0.0347551778,679.9898682,0.03488803655,
679.0094604,0.03561016917,679.0094604,0.03482955322,679.0094604,0.0351832062,
677.9924316,0.03613063321,677.9924316,0.03504767641,677.9924316,0.03539668024,
677.0114136,0.0363048017,677.0114136,0.03541307896,677.0114136,0.03560303524,
675.9937744,0.03643320873,675.9937744,0.0357366316,675.9937744,0.03598695993,
675.012085,0.03676687181,675.012085,0.03570470214,675.012085,0.03600374982,
673.9938354,0.03679034114,673.9938354,0.03597424924,673.9938354,0.03619486094,
673.0116577,0.03687594458,673.0116577,0.03604551405,673.0116577,0.03652431443,
671.9926758,0.03708277643,671.9926758,0.03648047522,671.9926758,0.03671633452,
671.0098877,0.03742721304,671.0098877,0.0366614908,671.0098877,0.03677498549,
669.9902954,0.03760122508,669.9902954,0.03649562597,669.9902954,0.03712210804,
669.006897,0.03773283958,669.006897,0.03638842329,669.006897,0.03653149679,
667.9867554,0.03716262802,667.9867554,0.03607409075,667.9867554,0.03625879064,
667.0027466,0.03687371686,667.0027466,0.03595394641,667.0027466,0.03609307855,
665.9819946,0.03684996068,665.9819946,0.03596024215,665.9819946,0.03597737104,
664.9973145,0.03656410426,664.9973145,0.03565037996,664.9973145,0.03602455929,
664.0123901,0.03698058799,664.0123901,0.03578382358,664.0123901,0.03576192632,
662.9906616,0.03676892817,662.9906616,0.03569728136,662.9906616,0.03578104079,
662.005188,0.03707426414,662.005188,0.03570369259,662.005188,0.03586467355,
660.9828491,0.0369707495,660.9828491,0.03580411896,660.9828491,0.03576960042,
659.9967651,0.03703186288,659.9967651,0.03581283242,659.9967651,0.03559522331,
659.010376,0.03727066889,659.010376,0.03607895598,659.010376,0.03575756773,
657.9870605,0.03723955899,657.9870605,0.03605589271,657.9870605,0.03532829881,
657.0001831,0.03712647781,657.0001831,0.03583425283,657.0001831,0.03541715443,
656.0128784,0.03701435775,656.0128784,0.03574992344,656.0128784,0.03551324457,
654.9887695,0.03725795075,654.9887695,0.03583090752,654.9887695,0.03574025631,
654.0009155,0.03713990003,654.0009155,0.03582393751,654.0009155,0.0356660597,
653.0127563,0.03685111925,653.0127563,0.03616787866,653.0127563,0.0355761461,
651.9876709,0.03710538894,651.9876709,0.03642324358,651.9876709,0.03563149646,
650.9989624,0.03707432002,650.9989624,0.03625479341,650.9989624,0.03573539481,
650.0100098,0.03711125255,650.0100098,0.03625119105,650.0100098,0.03571689874,
648.9840088,0.03703736141,648.9840088,0.03618003428,648.9840088,0.03570976108,
647.9944458,0.03693625331,647.9944458,0.03632104024,647.9944458,0.03577367589,
647.0045776,0.03721186519,647.0045776,0.03629663959,647.0045776,0.0359489955,
646.0144043,0.03691801801,646.0144043,0.03649584949,646.0144043,0.03558906913,
644.9873047,0.03677484393,644.9873047,0.03638189286,644.9873047,0.03569464013,
643.99646,0.03667039052,643.99646,0.03638011962,643.99646,0.03602540493,
643.0054932,0.03680482134,643.0054932,0.03661811724,643.0054932,0.03592166305,
642.0142212,0.03658758849,642.0142212,0.03658257797,642.0142212,0.03592725843,
640.9858398,0.03671531752,640.9858398,0.03652910143,640.9858398,0.036229074,
639.9940186,0.0370746851,639.9940186,0.03679634258,639.9940186,0.03618903831,
639.0018311,0.0368347168,639.0018311,0.03668751568,639.0018311,0.0363441743,
638.0094604,0.03687120974,638.0094604,0.0367347002,638.0094604,0.03655264154,
637.0166626,0.03707333282,637.0166626,0.03669661656,637.0166626,0.03626453131,
635.9868774,0.03701914847,635.9868774,0.03697032854,635.9868774,0.03657964617,
634.9935913,0.03719105199,634.9935913,0.03678380325,634.9935913,0.0365081802,
634.000061,0.03713707998,634.000061,0.03692249954,634.000061,0.03651133552,
633.0062256,0.0374109298,633.0062256,0.03675323725,633.0062256,0.03662704304,
632.012085,0.03716564551,632.012085,0.03667427972,632.012085,0.03648779541,
631.0176392,0.03734144568,631.0176392,0.03661068156,631.0176392,0.03635152057,
629.986145,0.03693918511,629.986145,0.03655351698,629.986145,0.03650066257,
628.9911499,0.03706388921,628.9911499,0.03655816242,628.9911499,0.03643233702,
627.9959106,0.03707101941,627.9959106,0.036739178,627.9959106,0.03638591617,
627.0003662,0.03703127056,627.0003662,0.03658296913,627.0003662,0.03640854731,
626.0046387,0.03711878136,626.0046387,0.03645809367,626.0046387,0.03643382713,
625.0085449,0.03712506965,625.0085449,0.03655323386,625.0085449,0.03646434471,
624.012207,0.03707488254,624.012207,0.03676411137,624.012207,0.03640441224,
623.015564,0.03720306605,623.015564,0.0366756022,623.015564,0.03646248579,
621.9817505,0.03726381809,621.9817505,0.0367163904,621.9817505,0.03639137745,
620.9845581,0.03734398261,620.9845581,0.03663445264,620.9845581,0.03664230928,
619.9871826,0.03728604317,619.9871826,0.03660369664,619.9871826,0.0363381803,
618.9893799,0.03743053973,618.9893799,0.03664146364,618.9893799,0.03652884811,
617.9914551,0.03722379357,617.9914551,0.03685373813,617.9914551,0.03619221598,
616.9931641,0.03715673462,616.9931641,0.03678222746,616.9931641,0.03610837832,
615.9946289,0.03703628853,615.9946289,0.03691855446,615.9946289,0.03650460765,
614.9957886,0.03698974848,614.9957886,0.03668917716,614.9957886,0.03640362248,
613.9967041,0.03708630055,613.9967041,0.036726024,613.9967041,0.03634459898,
612.9974365,0.03707090765,612.9974365,0.03693487123,612.9974365,0.03639483824,
611.9976807,0.03711322695,611.9976807,0.03697187826,611.9976807,0.03640002012,
610.9979248,0.03718470782,610.9979248,0.03689919412,610.9979248,0.03634380922,
609.9976807,0.03706428409,609.9976807,0.03728152812,609.9976807,0.03635289893,
608.9973145,0.03705776855,608.9973145,0.03741950914,608.9973145,0.0364228785,
607.996582,0.03694417328,607.996582,0.0374012813,607.996582,0.03648016602,
606.9956665,0.03689817712,606.9956665,0.03752013668,606.9956665,0.03663985804,
605.9944458,0.03694335371,605.9944458,0.03744216636,605.9944458,0.03636156768,
604.9929199,0.03686954826,604.9929199,0.03752538562,604.9929199,0.03638704121,
603.9911499,0.03696105629,603.9911499,0.03747808561,603.9911499,0.03631982952,
602.9891968,0.03672027588,602.9891968,0.03739950433,602.9891968,0.03622327745,
601.9868774,0.03686627746,601.9868774,0.03732609749,601.9868774,0.03632619232,
600.984314,0.03668058664,600.984314,0.03737038746,600.984314,0.03625183925,
599.9815063,0.0366598554,599.9815063,0.0375402011,599.9815063,0.03634375334,
599.015564,0.03666430712,599.015564,0.03748356178,599.015564,0.03632807732,
598.0122681,0.03672244772,598.0122681,0.03733035922,598.0122681,0.03633015975,
597.008667,0.03670951724,597.008667,0.03729532287,597.008667,0.03656230122,
596.0048218,0.03689848632,596.0048218,0.03729492798,596.0048218,0.03639202565,
595.0006714,0.03672351688,595.0006714,0.03729230538,595.0006714,0.03649903089,
593.9963989,0.03677110001,593.9963989,0.03732496873,593.9963989,0.03640275076,
592.9916992,0.03678366542,592.9916992,0.03718355298,592.9916992,0.03652200475,
591.9868164,0.03675830737,591.9868164,0.03731498495,591.9868164,0.0364469476,
590.9816284,0.0366936028,590.9816284,0.03724164888,590.9816284,0.03653616831,
590.0134888,0.03686469793,590.0134888,0.03731670603,590.0134888,0.03654377162,
589.0078125,0.03692032769,589.0078125,0.03732031584,589.0078125,0.03667999431,
588.0018921,0.03703958541,588.0018921,0.03736776486,588.0018921,0.0367878601,
586.9956665,0.03742456064,586.9956665,0.03733405471,586.9956665,0.03664650768,
585.9891968,0.03748426586,585.9891968,0.03732945397,585.9891968,0.03684632853,
584.9825439,0.03763772547,584.9825439,0.03746313229,584.9825439,0.03687103838,
584.0128784,0.03763052449,584.0128784,0.037561398,584.0128784,0.03676681593,
583.0056763,0.03791256621,583.0056763,0.03757666796,583.0056763,0.03706118092,
581.9981689,0.03780702129,581.9981689,0.03766829893,581.9981689,0.03695485368,
580.9904785,0.03807547316,580.9904785,0.03757929429,580.9904785,0.03714838997,
579.9824829,0.03794508055,579.9824829,0.03767061234,579.9824829,0.03707660362,
579.0115967,0.0378646329,579.0115967,0.03765469044,579.0115967,0.03696998954,
578.0031738,0.03778267652,578.0031738,0.03769421577,578.0031738,0.03695885837,
576.9944458,0.03769012168,576.9944458,0.03779098019,576.9944458,0.03701385111,
575.9854126,0.03765005991,575.9854126,0.03780882806,575.9854126,0.03705971688,
575.0136108,0.0376284346,575.0136108,0.03784579784,575.0136108,0.03711412847,
574.0041504,0.03772349283,574.0041504,0.0378199257,574.0041504,0.03707353026,
572.9943848,0.03763724491,572.9943848,0.03796561807,572.9943848,0.03715636954,
571.984436,0.03754985332,571.984436,0.03795118257,571.984436,0.03719883785,
571.0115967,0.03752877191,571.0115967,0.03788596019,571.0115967,0.03724506125,
570.0011597,0.03731283918,570.0011597,0.03799850494,570.0011597,0.03725058958,
568.9904175,0.03726770729,568.9904175,0.03803125024,568.9904175,0.03733594343,
568.0169067,0.03720216453,568.0169067,0.03824581578,568.0169067,0.0372727029,
567.0056763,0.03740712255,567.0056763,0.03834281862,567.0056763,0.03734984994,
565.9942017,0.03743155673,565.9942017,0.03841959313,565.9942017,0.03743279725,
564.9824829,0.03769325465,564.9824829,0.03854392841,564.9824829,0.03753893077,
564.0080566,0.03791858256,564.0080566,0.03856972978,564.0080566,0.03776390105,
562.9957886,0.03809417784,562.9957886,0.03879509121,562.9957886,0.03780239075,
561.9833984,0.03856200725,561.9833984,0.03890147433,561.9833984,0.03808799013,
561.0081787,0.03903988376,561.0081787,0.03933460265,561.0081787,0.03821404278,
559.9953003,0.03938833997,559.9953003,0.03966043517,559.9953003,0.03845525533,
558.9820557,0.04000595585,558.9820557,0.04018083587,558.9820557,0.03886625543,
558.0062256,0.04065333307,558.0062256,0.04083162919,558.0062256,0.03946696967,
556.9924927,0.04140394926,556.9924927,0.04162175208,556.9924927,0.0400329493,
556.0161743,0.04210375249,556.0161743,0.04222195968,556.0161743,0.0406026803,
555.0020752,0.04293874279,555.0020752,0.043100629,555.0020752,0.04128026962,
553.9876709,0.04374845698,553.9876709,0.04394891113,553.9876709,0.0422471799,
553.0106201,0.04447401688,553.0106201,0.04490734637,553.0106201,0.0431285277,
551.9957886,0.04532162845,551.9957886,0.04602800682,551.9957886,0.04424537718,
551.0183105,0.04642601684,551.0183105,0.04726284742,551.0183105,0.04535136744,
550.0029907,0.04779021442,550.0029907,0.04863173515,550.0029907,0.04674280435,
548.9873657,0.04937826842,548.9873657,0.05036688596,548.9873657,0.04842841625,
548.0091553,0.05109975487,548.0091553,0.05192274228,548.0091553,0.0501367487,
546.993103,0.05295021832,546.993103,0.05385243893,546.993103,0.05193274841,
546.0145264,0.05478901416,546.0145264,0.05569959804,546.0145264,0.05386448279,
544.9979858,0.05711929873,544.9979858,0.0579575114,544.9979858,0.05619206652,
543.9812012,0.05944763869,543.9812012,0.06021875143,543.9812012,0.0583807081,
543.0018921,0.06174704432,543.0018921,0.06259980798,543.0018921,0.06075266376,
541.9846191,0.06421685219,541.9846191,0.06498957425,541.9846191,0.06315977126,
541.0048218,0.06669320911,541.0048218,0.06730607897,541.0048218,0.0656554997,
539.9872437,0.06963150948,539.9872437,0.07018132508,539.9872437,0.06870943308,
539.006958,0.0723413974,539.006958,0.07286168635,539.006958,0.07132437825,
537.9888306,0.07524253428,537.9888306,0.07568917423,537.9888306,0.0741969943,
537.0081177,0.07781024277,537.0081177,0.07817678154,537.0081177,0.07684081793,
535.9894409,0.08065771312,535.9894409,0.08107648045,535.9894409,0.07972399145,
535.0083618,0.08393140882,535.0083618,0.08429997414,535.0083618,0.08312436938,
533.9892578,0.08669191599,533.9892578,0.08704265207,533.9892578,0.0859580338,
533.0076904,0.08896062523,533.0076904,0.08927215636,533.0076904,0.08818712831,
531.9882202,0.09184196591,531.9882202,0.09213412553,531.9882202,0.0909993276,
531.0061646,0.09451897442,531.0061646,0.09477784485,531.0061646,0.09377565235,
529.986145,0.09765755385,529.986145,0.0977698192,529.986145,0.09675128758,
529.0036621,0.1001661792,529.0036621,0.1002006754,529.0036621,0.09927262366,
527.9832764,0.1023533344,527.9832764,0.1022122353,527.9832764,0.1013398692,
527.0003662,0.1047179624,527.0003662,0.1045596004,527.0003662,0.103706561,
526.0172729,0.1068800762,526.0172729,0.1066542044,526.0172729,0.1057103649,
524.9961548,0.1088953167,524.9961548,0.1086661965,524.9961548,0.107743457,
524.0125732,0.1107183173,524.0125732,0.1104253083,524.0125732,0.109566018,
522.9909668,0.1123538911,522.9909668,0.1120012105,522.9909668,0.11122109,
522.0070801,0.1138299853,522.0070801,0.1134480387,522.0070801,0.1126097888,
520.9849854,0.1152885705,520.9849854,0.114966251,520.9849854,0.1138366163,
520.0006104,0.1162565947,520.0006104,0.1160811409,520.0006104,0.1150949523,
519.0159912,0.1174040809,519.0159912,0.1171872094,519.0159912,0.1159760132,
517.9932861,0.1183917597,517.9932861,0.1181893498,517.9932861,0.1168787926,
517.0082397,0.119058162,517.0082397,0.1187108457,517.0082397,0.117280215,
515.9851074,0.1196585745,515.9851074,0.119215399,515.9851074,0.1179232448,
514.9996338,0.1203171909,514.9996338,0.1196958497,514.9996338,0.1183795556,
514.0139771,0.1206816509,514.0139771,0.1201558709,514.0139771,0.1187314987,
512.9901123,0.1208617687,512.9901123,0.1202686355,512.9901123,0.1189199388,
512.0039673,0.1209383681,512.0039673,0.1205037236,512.0039673,0.1190917045,
511.0176392,0.1209805384,511.0176392,0.1205562726,511.0176392,0.119149223,
509.9931946,0.1207905933,509.9931946,0.1205661818,509.9931946,0.1191615164,
509.0064392,0.1205977201,509.0064392,0.1204526201,509.0064392,0.1190400124,
507.9815369,0.1203129962,507.9815369,0.1201389059,507.9815369,0.1188530922,
506.9943542,0.1198889986,506.9943542,0.1200098544,506.9943542,0.118684344,
506.007019,0.1195807084,506.007019,0.1195481122,506.007019,0.1184599325,
504.9814148,0.1192966774,504.9814148,0.1191825271,504.9814148,0.1179320738,
503.9936523,0.1189089417,503.9936523,0.1188601702,503.9936523,0.1178933233,
503.0055847,0.1188517958,503.0055847,0.1187570542,503.0055847,0.1174970344,
502.0173645,0.1186013743,502.0173645,0.1182779521,502.0173645,0.1171285287,
500.9910278,0.118159309,500.9910278,0.1179627478,500.9910278,0.1165688336,
500.0023499,0.1178448722,500.0023499,0.1174854264,500.0023499,0.1162136942,
499.0135498,0.1176283211,499.0135498,0.1172165349,499.0135498,0.1158555001,
497.9864807,0.1171387285,497.9864807,0.1167026535,497.9864807,0.1153954566,
496.9972534,0.1165851504,496.9972534,0.1162370071,496.9972534,0.1150432304,
496.0078125,0.1161085665,496.0078125,0.1159561351,496.0078125,0.1145827919,
495.018219,0.1157200485,495.018219,0.1155251265,495.018219,0.1142211258,
493.9902039,0.1155555919,493.9902039,0.1153110489,493.9902039,0.1139493361,
493.0001526,0.1152607575,493.0001526,0.1150235981,493.0001526,0.1137807369,
492.0098572,0.1151052415,492.0098572,0.1148514077,492.0098572,0.1134642363,
490.9813843,0.1147199795,490.9813843,0.1144852042,490.9813843,0.1133361161,
489.9907227,0.114612624,489.9907227,0.1141748652,489.9907227,0.1131058186,
488.9998474,0.1145878136,488.9998474,0.1143063605,488.9998474,0.1132538319,
488.0087585,0.1145288423,488.0087585,0.1143065318,488.0087585,0.1132625639,
487.0175476,0.1145644635,487.0175476,0.1143731251,487.0175476,0.1133747324,
485.9879456,0.1146217585,485.9879456,0.1144403964,485.9879456,0.113549158,
484.9963074,0.1150015369,484.9963074,0.1147231534,484.9963074,0.1137837991,
484.0044556,0.1153817475,484.0044556,0.1150326058,484.0044556,0.1142127439,
483.0123596,0.1158969402,483.0123596,0.1155832931,483.0123596,0.1147366017,
481.9819946,0.1162406579,481.9819946,0.1159629673,481.9819946,0.1150138825,
480.989502,0.1169231087,480.989502,0.1164665297,480.989502,0.1156565621,
479.9967957,0.1176588014,479.9967957,0.1171338111,479.9967957,0.1163802668,
479.0039368,0.1186203882,479.0039368,0.1179910377,479.0039368,0.1173240989,
478.0109558,0.1194196194,478.0109558,0.1186868325,478.0109558,0.1180532351,
477.0176697,0.1203464568,477.0176697,0.1195668653,477.0176697,0.1189128608,
475.9860229,0.1213276833,475.9860229,0.1204347536,475.9860229,0.1200212911,
474.9924316,0.1224256977,474.9924316,0.1214320958,474.9924316,0.1211377233,
473.9985657,0.1237064525,473.9985657,0.1225930527,473.9985657,0.1223542541,
473.0045166,0.1246142164,473.0045166,0.1237942949,473.0045166,0.123585254,
472.0103455,0.1256117821,472.0103455,0.1249057427,472.0103455,0.1246297359,
471.0158691,0.1266157627,471.0158691,0.1260553449,471.0158691,0.1259017587,
469.9830933,0.1276918799,469.9830933,0.1273415089,469.9830933,0.1270878911,
468.9882813,0.1288121343,468.9882813,0.1284811944,468.9882813,0.1282061785,
467.9932861,0.1300707161,467.9932861,0.1297688931,467.9932861,0.1293684244,
466.9981384,0.1311036944,466.9981384,0.1310072243,466.9981384,0.130545646,
466.0027466,0.1322032213,466.0027466,0.132228598,466.0027466,0.1315440387,
465.0072021,0.1332096606,465.0072021,0.1333958954,465.0072021,0.1327393055,
464.0114136,0.1342082918,464.0114136,0.1345652193,464.0114136,0.1337117404,
463.0155029,0.1352940798,463.0155029,0.1358053237,463.0155029,0.1347202063,
461.9810181,0.1364727765,461.9810181,0.1369059384,461.9810181,0.1358861923,
460.9847107,0.1373827904,460.9847107,0.1379962265,460.9847107,0.136904031,
459.9881897,0.1382976025,459.9881897,0.1390226632,459.9881897,0.1377080381,
458.9915466,0.1393895,458.9915466,0.1401244551,458.9915466,0.1386202276,
457.9945984,0.1404457241,457.9945984,0.1411263347,457.9945984,0.1397580057,
456.9975281,0.1415992081,456.9975281,0.1422554106,456.9975281,0.1407980919,
456.0002747,0.1426732689,456.0002747,0.1432340741,456.0002747,0.1417639256,
455.0028076,0.1436737478,455.0028076,0.1443234235,455.0028076,0.1427125782,
454.005188,0.1444824338,454.005188,0.1451985091,454.005188,0.1435028613,
453.0073853,0.1454276294,453.0073853,0.1462935358,453.0073853,0.1445573419,
452.0093994,0.1465376914,452.0093994,0.1471079439,452.0093994,0.1456160992,
451.0112,0.1476159841,451.0112,0.148259148,451.0112,0.1467115283,
450.0128174,0.1485272348,450.0128174,0.1491778642,450.0128174,0.1476993114,
449.0143127,0.1493363976,449.0143127,0.1500130296,449.0143127,0.1484894007,
448.0155945,0.1504307389,448.0155945,0.1510755122,448.0155945,0.1495093703,
447.0166626,0.1516187191,447.0166626,0.1521674544,447.0166626,0.1506536603,
446.0175171,0.1528380364,446.0175171,0.1532620043,446.0175171,0.151798591,
445.0182495,0.1538687497,445.0182495,0.1542831063,445.0182495,0.1529772133,
444.0188293,0.1549062878,444.0188293,0.1553676426,444.0188293,0.1539894044,
443.0191345,0.1558813006,443.0191345,0.156321466,443.0191345,0.1550450623,
441.980896,0.1569663882,441.980896,0.1573870927,441.980896,0.1562012434,
440.980896,0.1578937918,440.980896,0.1584451497,440.980896,0.1574430317,
440.0191956,0.1590900719,440.0191956,0.1595335454,440.0191956,0.1585365832,
439.0187988,0.1601281166,439.0187988,0.1605248451,439.0187988,0.1597022861,
438.01828,0.1612058431,438.01828,0.1613688916,438.01828,0.160604462,
437.0175476,0.1622380167,437.0175476,0.1624135375,437.0175476,0.1618450582,
436.0166321,0.1634284556,436.0166321,0.163510263,436.0166321,0.1631268561,
435.015564,0.1647810787,435.015564,0.1647869349,435.015564,0.1644733846,
434.0143433,0.1659348607,434.0143433,0.1657464951,434.0143433,0.1654590815,
433.0129395,0.167152226,433.0129395,0.1667840928,433.0129395,0.166636616,
432.0112915,0.1685709208,432.0112915,0.1679954976,432.0112915,0.1679531634,
431.009491,0.1699650139,431.009491,0.169278264,431.009491,0.1692484021,
430.0075684,0.1712932289,430.0075684,0.1705141366,430.0075684,0.1705674231,
429.0054321,0.1723271459,429.0054321,0.1716553271,429.0054321,0.171805203,
428.0031128,0.1734690666,428.0031128,0.1726741046,428.0031128,0.1729677618,
427.0006409,0.174725458,427.0006409,0.1738618612,427.0006409,0.1741749942,
425.9980164,0.176066041,425.9980164,0.1752938479,425.9980164,0.1756635159,
424.9951477,0.1771410555,424.9951477,0.1765453219,424.9951477,0.1768194735,
423.992157,0.1783315837,423.992157,0.177649796,423.992157,0.1778746247,
422.9889832,0.1791959405,422.9889832,0.1785342693,422.9889832,0.1788040996,
421.9856567,0.1807311922,421.9856567,0.1799817681,421.9856567,0.1803002059,
420.9821167,0.181883648,420.9821167,0.1810594946,420.9821167,0.1813705862,
420.0170593,0.1831674576,420.0170593,0.1823375523,420.0170593,0.182604,
419.0131531,0.1843144149,419.0131531,0.1833636463,419.0131531,0.1836038679,
418.0091858,0.185559243,418.0091858,0.1845835,418.0091858,0.184707731,
417.0049133,0.1868851185,417.0049133,0.1858574301,417.0049133,0.1857804656,
416.0006104,0.1881407052,416.0006104,0.1870036274,416.0006104,0.1869508326,
414.9960327,0.1895021498,414.9960327,0.1882868707,414.9960327,0.1880995035,
413.991394,0.1907673031,413.991394,0.1893652529,413.991394,0.1892757118,
412.9864807,0.192000106,412.9864807,0.1904660314,412.9864807,0.1902629882,
411.9814453,0.1931030601,411.9814453,0.1914404035,411.9814453,0.1913668811,
411.0149231,0.1944113225,411.0149231,0.1927780062,411.0149231,0.192468226,
410.009552,0.1954428405,410.009552,0.1938180476,410.009552,0.1935591549,
409.0039673,0.1966280192,409.0039673,0.1950022876,409.0039673,0.1947095245,
407.998291,0.1977265626,407.998291,0.1960638613,407.998291,0.1956470162,
406.9924316,0.1986546367,406.9924316,0.1972674131,406.9924316,0.1967791468,
405.9863892,0.1998668313,405.9863892,0.1983484477,405.9863892,0.1980031133,
405.0188904,0.2010452896,405.0188904,0.1995326132,405.0188904,0.1991363764,
404.0125427,0.2021621168,404.0125427,0.2007646561,404.0125427,0.200376451,
403.0060425,0.2031901628,403.0060425,0.2017715424,403.0060425,0.2015631199,
401.9992981,0.2043945789,401.9992981,0.2028983086,401.9992981,0.202608183,
400.9924316,0.2056996524,400.9924316,0.2042494267,400.9924316,0.203872174,
399.9854431,0.2069621384,399.9854431,0.2053319812,399.9854431,0.2050414234,
399.0169983,0.2083167434,399.0169983,0.2066695392,399.0169983,0.2062894106,
398.0096741,0.2094423175,398.0096741,0.2079131603,398.0096741,0.2075750679,
397.0021973,0.2107890844,397.0021973,0.2092561871,397.0021973,0.208730951,
395.9945374,0.2122876793,395.9945374,0.210749805,395.9945374,0.2100315988,
394.9867249,0.2135752887,394.9867249,0.2120040804,394.9867249,0.2114037722,
394.0174866,0.214457646,394.0174866,0.2132418156,394.0174866,0.2126111239,
393.0093384,0.2156985402,393.0093384,0.2147185355,393.0093384,0.2139145583,
392.0010681,0.217155084,392.0010681,0.216391921,392.0010681,0.2154733241,
390.9925842,0.2182563394,390.9925842,0.2176716924,390.9925842,0.2166739255,
389.9839478,0.2196690887,389.9839478,0.2189771831,389.9839478,0.218090266,
389.0140076,0.2209427655,389.0140076,0.2204093188,389.0140076,0.2193560004,
388.0050964,0.2223687023,388.0050964,0.221952498,388.0050964,0.2208502889,
386.9960022,0.2236554027,386.9960022,0.2232374847,386.9960022,0.2221491933,
385.9867859,0.2250945568,385.9867859,0.2247882634,385.9867859,0.2237279266,
385.0162048,0.2265593261,385.0162048,0.2262402326,385.0162048,0.2251069844,
384.0066223,0.2280257493,384.0066223,0.2278627604,384.0066223,0.226659134,
382.9969177,0.2294967324,382.9969177,0.2291042209,382.9969177,0.2279940248,
381.9870605,0.2311278284,381.9870605,0.2308958024,381.9870605,0.2295173258,
381.0158997,0.2327443361,381.0158997,0.2323344797,381.0158997,0.2310624272,
380.0057373,0.2346001565,380.0057373,0.2338905334,380.0057373,0.2328365445,
378.9954224,0.2366382629,378.9954224,0.2360500991,378.9954224,0.2348984182,
377.9848938,0.2386026084,377.9848938,0.2380391508,377.9848938,0.2371166348,
377.0131836,0.2403833568,377.0131836,0.2395809889,377.0131836,0.2386022508,
376.0024109,0.2419937104,376.0024109,0.2411155254,376.0024109,0.2400615066,
374.9914551,0.2438400835,374.9914551,0.2430658489,374.9914551,0.241838187,
374.0192566,0.2457099855,374.0192566,0.2447731048,374.0192566,0.2436836362,
373.0080261,0.2477352619,373.0080261,0.2469072491,373.0080261,0.2459189743,
371.9966431,0.2496204376,371.9966431,0.2495725602,371.9966431,0.2482496947,
370.9851074,0.2519915104,370.9851074,0.2514041364,370.9851074,0.250395596,
370.0123596,0.2538462877,370.0123596,0.2532888651,370.0123596,0.2522500753,
369.0005188,0.2558427453,369.0005188,0.2552625537,369.0005188,0.2540348172,
367.9885559,0.2578990459,367.9885559,0.2575468123,367.9885559,0.2564170063,
367.0153503,0.2598482966,367.0153503,0.2593334019,367.0153503,0.2581596971,
366.0030518,0.2619515061,366.0030518,0.2613198161,366.0030518,0.2601576447,
364.9906311,0.2638761699,364.9906311,0.2634725571,364.9906311,0.2622499764,
364.0169983,0.2659286559,364.0169983,0.2655332685,364.0169983,0.2642688453,
363.0043335,0.2684379518,363.0043335,0.2680949867,363.0043335,0.2669568658,
361.9914246,0.2705438435,361.9914246,0.2699459493,361.9914246,0.2687960565,
361.0173645,0.272195667,361.0173645,0.2716540396,361.0173645,0.2704060376,
360.0042419,0.2738479674,360.0042419,0.2733801007,360.0042419,0.2723573744,
358.9909363,0.276157558,358.9909363,0.2759417593,358.9909363,0.2746429741,
358.0164795,0.2786744535,358.0164795,0.2780248523,358.0164795,0.2770074606,
357.0028992,0.2802618444,357.0028992,0.2796827555,357.0028992,0.2785449922,
355.9891663,0.2821213007,355.9891663,0.282000035,355.9891663,0.2806757987,
355.0142822,0.2843628526,355.0142822,0.2838041484,355.0142822,0.2826859355,
354.0002747,0.2865301073,354.0002747,0.2859933674,354.0002747,0.284924984,
352.9861145,0.2889176011,352.9861145,0.2882530093,352.9861145,0.2869431973,
352.0108032,0.290969789,352.0108032,0.2902577519,352.0108032,0.2892012,
350.9963989,0.2931649089,350.9963989,0.2926186323,350.9963989,0.2913503647,
349.9818115,0.2949644327,349.9818115,0.2946635485,349.9818115,0.2934390903,
349.0061035,0.2972954214,349.0061035,0.2966811657,349.0061035,0.2956673503,
347.9912109,0.2998195589,347.9912109,0.2994487584,347.9912109,0.2979719639,
347.0152588,0.3020854294,347.0152588,0.301459074,347.0152588,0.3000742495,
346.0001526,0.3038504124,346.0001526,0.3036059737,346.0001526,0.3024701774,
344.9848328,0.3060785532,344.9848328,0.305880785,344.9848328,0.3045554459,
344.0084839,0.3079859316,344.0084839,0.3080451488,344.0084839,0.3066789508,
342.9929199,0.3106057048,342.9929199,0.3104867637,342.9929199,0.3092671335,
342.0163269,0.3126985133,342.0163269,0.3127711117,342.0163269,0.3118552864,
341.0004883,0.3152163923,341.0004883,0.3151470125,341.0004883,0.3140110672,
339.9845276,0.3178435266,339.9845276,0.3175692558,339.9845276,0.3166853189,
339.0074768,0.3206220269,339.0074768,0.3201143146,339.0074768,0.3193535209,
337.9912415,0.3233807087,337.9912415,0.3230020106,337.9912415,0.3219493628,
337.0139465,0.3262297213,337.0139465,0.3255757987,337.0139465,0.324890703,
335.9974365,0.3289310038,335.9974365,0.3286073506,335.9974365,0.32754457,
334.9808044,0.3319891691,334.9808044,0.331528008,334.9808044,0.3308428228,
334.0031128,0.335128665,334.0031128,0.3346207142,334.0031128,0.3336279988,
332.9861755,0.3385046124,332.9861755,0.3377739191,332.9861755,0.3368502855,
332.0082703,0.3415032327,332.0082703,0.3408061564,332.0082703,0.3397864699,
330.9911194,0.3449905515,330.9911194,0.3440630436,330.9911194,0.3432143331,
330.0129089,0.3480014503,330.0129089,0.3474184871,330.0129089,0.346457839,
328.9954529,0.3516376317,328.9954529,0.3508989215,328.9954529,0.349812746,
328.0170288,0.3554073274,328.0170288,0.3546486795,328.0170288,0.3535428643,
326.9993286,0.3591423035,326.9993286,0.3584724069,326.9993286,0.3576225042,
325.9814758,0.3626333475,325.9814758,0.3617898822,325.9814758,0.3610734642,
325.002655,0.3669442236,325.002655,0.366417259,325.002655,0.36553213,
323.9845581,0.3707086444,323.9845581,0.370105952,323.9845581,0.3693430424,
323.0054932,0.3744671643,323.0054932,0.3741660714,323.0054932,0.3734482527,
321.9871216,0.3789669275,321.9871216,0.3785996139,321.9871216,0.37793836,
321.007782,0.3830429912,321.007782,0.3830733001,321.007782,0.3823382854,
319.9891663,0.3877220452,319.9891663,0.3877434731,319.9891663,0.3869711161,
319.009613,0.3920571208,319.009613,0.3917568028,319.009613,0.3911258876,
317.9907837,0.3969821036,317.9907837,0.3970291913,317.9907837,0.3964116275,
317.0109253,0.4019018114,317.0109253,0.4019075036,317.0109253,0.4013163447,
315.9918213,0.4070571363,315.9918213,0.407301873,315.9918213,0.406537354,
315.0117493,0.4119841456,315.0117493,0.4120447338,315.0117493,0.4115313292,
313.9924011,0.4166512787,313.9924011,0.4168207049,313.9924011,0.4161016941,
313.0121155,0.4224087894,313.0121155,0.4222896397,313.0121155,0.4218027294,
311.9924622,0.4277293086,311.9924622,0.4274239838,311.9924622,0.4272131324,
311.0119324,0.4325988889,311.0119324,0.4324683845,311.0119324,0.4320451617,
309.9920654,0.4385883212,309.9920654,0.4384991825,309.9920654,0.4380545318,
309.0112915,0.4443872869,309.0112915,0.4440063238,309.0112915,0.4438405335,
307.9911499,0.4504846334,307.9911499,0.450063467,307.9911499,0.4497809112,
307.0101624,0.4565767944,307.0101624,0.4561809599,307.0101624,0.4558191895,
305.9897461,0.4621837437,305.9897461,0.4617478251,305.9897461,0.4615827501,
305.0085449,0.4680193961,305.0085449,0.4677691758,305.0085449,0.4671263397,
303.987915,0.4744951725,303.987915,0.4737906754,303.987915,0.473267585,
303.0064392,0.4814518392,303.0064392,0.4807888269,303.0064392,0.4802013338,
301.9855652,0.4878014326,301.9855652,0.4868601263,301.9855652,0.4863211513,
301.0038452,0.4937693775,301.0038452,0.49308604,301.0038452,0.492344439,
299.9827881,0.5008702874,299.9827881,0.4997791946,299.9827881,0.498948276,
299.0008545,0.5080282092,299.0008545,0.5067307353,299.0008545,0.5061109066,
298.0187683,0.5153604746,298.0187683,0.514046073,298.0187683,0.5133759975,
296.9973145,0.5220731497,296.9973145,0.5206519365,296.9973145,0.5199694037,
296.0150452,0.5289791822,296.0150452,0.5277633667,296.0150452,0.5268904567,
294.9933472,0.5371839404,294.9933472,0.5357167721,294.9933472,0.5348809958,
294.0108337,0.5444703698,294.0108337,0.5430822968,294.0108337,0.5423206091,
292.9888916,0.5531027317,292.9888916,0.5517537594,292.9888916,0.5508996844,
292.0061646,0.5615426302,292.0061646,0.5599641204,292.0061646,0.5592821836,
290.9840393,0.5691747665,290.9840393,0.5675669312,290.9840393,0.5670432448,
290.0010681,0.5775874257,290.0010681,0.5755620599,290.0010681,0.5753659606,
289.0180054,0.5885890722,289.0180054,0.5867148042,289.0180054,0.5864066482,
287.9954834,0.6011124849,287.9954834,0.599303782,287.9954834,0.5991108418,
287.0121765,0.6130288839,287.0121765,0.6108621359,287.0121765,0.6107738614,
285.9894104,0.6243506074,285.9894104,0.6227129102,285.9894104,0.6224662066,
285.0059204,0.6393058896,285.0059204,0.6368945837,285.0059204,0.6367712021,
283.9829712,0.6556746364,283.9829712,0.6533759236,283.9829712,0.6530202627,
282.9992676,0.6767023206,282.9992676,0.674760282,282.9992676,0.6744965911,
282.0154114,0.6949188113,282.0154114,0.6929103732,282.0154114,0.6933893561,
280.9920654,0.7164884806,280.9920654,0.714152813,280.9920654,0.7146660686,
280.0080566,0.7390704751,280.0080566,0.736115396,280.0080566,0.7372062206,
278.9845276,0.7618064284,278.9845276,0.7598204613,278.9845276,0.7598335147,
278.0002747,0.7825216651,278.0002747,0.7804729342,278.0002747,0.7805621028,
277.0158997,0.8015573621,277.0158997,0.7994638681,277.0158997,0.7996712923,
275.9920044,0.8212380409,275.9920044,0.8197491765,275.9920044,0.8195855618,
275.0074463,0.843285799,275.0074463,0.8416463137,275.0074463,0.8414486647,
273.9833679,0.864923656,273.9833679,0.8632918,273.9833679,0.8631824255,
272.9985657,0.8809053302,272.9985657,0.8787745833,272.9985657,0.8789839149,
272.0137024,0.8946624398,272.0137024,0.8929780722,272.0137024,0.8935262561,
270.9892883,0.9058459401,270.9892883,0.9041286111,270.9892883,0.9047471881,
270.0041504,0.9226205945,270.0041504,0.9207514524,270.0041504,0.9212098122,
269.0189514,0.9379478097,269.0189514,0.9353278875,269.0189514,0.9361943007,
267.9942322,0.9511351585,267.9942322,0.949246645,267.9942322,0.949903667,
267.0088196,0.9631378651,267.0088196,0.961258769,267.0088196,0.9616388679,
265.9838867,0.974268496,265.9838867,0.9715945721,265.9838867,0.972884953,
264.9982605,0.9864102602,264.9982605,0.9839523435,264.9982605,0.9847842455,
264.0125427,0.9968833327,264.0125427,0.9947508574,264.0125427,0.99576056,
262.9872742,1.006145597,262.9872742,1.004279375,262.9872742,1.004735947,
262.0013733,1.017689943,262.0013733,1.015042186,262.0013733,1.015685797,
261.0153198,1.029348135,261.0153198,1.027107716,261.0153198,1.027791858,
259.9897766,1.03733027,259.9897766,1.03502965,259.9897766,1.035733104,
259.00354,1.045394778,259.00354,1.043454051,259.00354,1.044119596,
258.0172424,1.055779815,258.0172424,1.053091764,258.0172424,1.053646326,
256.9913635,1.063911319,256.9913635,1.061948657,256.9913635,1.06284821,
256.0048523,1.072634339,256.0048523,1.070517659,256.0048523,1.071371198,
255.0182037,1.082962036,255.0182037,1.080897689,255.0182037,1.081411362,
253.9920349,1.09217,253.9920349,1.090389967,253.9920349,1.090441465,
253.0052643,1.102205634,253.0052643,1.099587083,253.0052643,1.099846959,
252.0183411,1.109021306,252.0183411,1.107111692,252.0183411,1.107159615,
250.9918518,1.119009972,250.9918518,1.117070198,250.9918518,1.117288113,
250.0047607,1.131034732,250.0047607,1.128455877,250.0047607,1.128930449,
249.0175476,1.139019012,249.0175476,1.13709569,249.0175476,1.137275219,
247.9907837,1.148623228,247.9907837,1.147158027,247.9907837,1.147309542,
247.0034027,1.155638576,247.0034027,1.154651403,247.0034027,1.154501438,
246.0159149,1.166699409,246.0159149,1.165974379,246.0159149,1.16546607,
244.9888458,1.182451725,244.9888458,1.182118416,244.9888458,1.181724072,
244.0011749,1.198170304,244.0011749,1.197092056,244.0011749,1.197261095,
243.0133972,1.212200522,243.0133972,1.211859584,243.0133972,1.211545348,
241.9860687,1.23048985,241.9860687,1.229895592,241.9860687,1.229731441,
240.9981232,1.257302642,240.9981232,1.257243752,240.9981232,1.256569147,
240.0100861,1.293461204,240.0100861,1.292418599,240.0100861,1.291820765,
238.9824371,1.334994793,238.9824371,1.334030271,238.9824371,1.333764195,
237.9942169,1.380934834,237.9942169,1.379319787,237.9942169,1.38170898,
237.0058899,1.445600271,237.0058899,1.447269201,237.0058899,1.445260048,
236.0175171,1.51658535,236.0175171,1.51734221,236.0175171,1.515974641,
234.989502,1.608026266,234.989502,1.609174728,234.989502,1.60932982,
234.0009003,1.682763457,234.0009003,1.677855372,234.0009003,1.679102659,
233.0122528,1.774269104,233.0122528,1.767900944,233.0122528,1.768604398,
231.9839172,1.872718453,231.9839172,1.870057464,231.9839172,1.867049336,
230.9950867,1.954451919,230.9950867,1.953924537,230.9950867,1.952940106,
230.0061493,2.038952351,230.0061493,2.034792662,230.0061493,2.035408497,
229.0171204,2.081346273,229.0171204,2.084303379,229.0171204,2.078465939,
227.9884491,2.149755955,227.9884491,2.147653818,227.9884491,2.146691799,
226.9992676,2.225594521,226.9992676,2.224201202,226.9992676,2.225274086,
226.0099945,2.293872595,226.0099945,2.292291641,226.0099945,2.290349245,
224.9810333,2.357345343,224.9810333,2.35155654,224.9810333,2.35343051,
223.9916077,2.389836311,223.9916077,2.392222881,223.9916077,2.390167475,
223.0020447,2.430584669,223.0020447,2.42417264,223.0020447,2.4275527,
222.0124207,2.4639256,222.0124207,2.455249786,222.0124207,2.457164049,
220.9831238,2.497282028,220.9831238,2.495079041,220.9831238,2.495703936,
219.9933319,2.544781923,219.9933319,2.545145035,219.9933319,2.539801836,
219.0034485,2.590591431,219.0034485,2.57370019,219.0034485,2.577462196,
218.013504,2.635857105,218.013504,2.630824089,218.013504,2.62704277,
216.9838562,2.672922134,216.9838562,2.683475256,216.9838562,2.679671288,
215.9937286,2.746854544,215.9937286,2.742294073,215.9937286,2.729019642,
215.00354,2.801084518,215.00354,2.79890728,215.00354,2.800963163,
214.0132141,2.87620759,214.0132141,2.866183043,214.0132141,2.852925301,
212.9832611,2.927175522,212.9832611,2.927373886,212.9832611,2.899327278,
211.9927979,3.018210649,211.9927979,3.009119272,211.9927979,2.9845047,
211.0022888,3.084288359,211.0022888,3.108454466,211.0022888,3.07648778,
210.0116425,3.191226721,210.0116425,3.166787624,210.0116425,3.155963421,
208.9813538,3.237995148,208.9813538,3.262027502,208.9813538,3.311069727,
207.9905701,3.343118191,207.9905701,3.348568916,207.9905701,3.39296031,
206.9997101,3.493417025,206.9997101,3.447030783,206.9997101,3.486505985,
206.0087738,3.512422562,206.0087738,3.483112574,206.0087738,3.522458315,
205.0177765,3.544239998,205.0177765,3.486071587,205.0177765,3.515908957,
203.98703,3.460042477,203.98703,3.566659451,203.98703,3.495790005,
202.9958954,3.535372496,202.9958954,3.508275032,202.9958954,3.49219346,
202.0046539,3.475947142,202.0046539,3.493650436,202.0046539,3.447897911,
201.0133362,3.513131618,201.0133362,3.574109316,201.0133362,3.571695328,
199.9822845,3.422616005,199.9822845,3.390592575,199.9822845,3.540845633,

sample10,
sample10
Collection Time: 15/04/2026 1:57:36 PM
Operator Name  :
Scan Version 5.3.0.1083
Parameter List :
Instrument  Cary 60
Instrument Version  2.00
Start (nm)  800.0
Stop (nm)  200.0
X Mode  Nanometers
Y Mode  Abs
UV-Vis Scan Rate (nm/min)  600.000
UV-Vis Data Interval (nm)  1.00
UV-Vis Ave. Time (sec)  0.1000
Beam Mode  Dual Beam
Baseline Correction  Off
Cycle Mode  Off
Method Log     :
Method Name    :
Date/Time stamp: 15/04/2026 1:06:08 PM
Method Modifications:
UVVIS SAT Changed: 15/04/2026 1:27:59 PM, Old:0.0125, New:0.1000
Common SAT Changed: 15/04/2026 1:27:59 PM, Old:0.0125, New:0.1000
Common Interval nm Changed: 15/04/2026 1:28:02 PM, Old:     5.00, New:     1.00
End Method Modifications
<Current Wavelength> , 201.0

sample11,
sample11
Collection Time: 15/04/2026 1:58:40 PM
Operator Name  :
Scan Version 5.3.0.1083
Parameter List :
Instrument  Cary 60
Instrument Version  2.00
Start (nm)  800.0
Stop (nm)  200.0
X Mode  Nanometers
Y Mode  Abs
UV-Vis Scan Rate (nm/min)  600.000
UV-Vis Data Interval (nm)  1.00
UV-Vis Ave. Time (sec)  0.1000
Beam Mode  Dual Beam
Baseline Correction  Off
Cycle Mode  Off
Method Log     :
Method Name    :
Date/Time stamp: 15/04/2026 1:06:08 PM
Method Modifications:
UVVIS SAT Changed: 15/04/2026 1:27:59 PM, Old:0.0125, New:0.1000
Common SAT Changed: 15/04/2026 1:27:59 PM, Old:0.0125, New:0.1000
Common Interval nm Changed: 15/04/2026 1:28:02 PM, Old:     5.00, New:     1.00
End Method Modifications
<Current Wavelength> , 201.0

sample12,
sample12
Collection Time: 15/04/2026 1:59:43 PM
Operator Name  :
Scan Version 5.3.0.1083
Parameter List :
Instrument  Cary 60
Instrument Version  2.00
Start (nm)  800.0
Stop (nm)  200.0
X Mode  Nanometers
Y Mode  Abs
UV-Vis Scan Rate (nm/min)  600.000
UV-Vis Data Interval (nm)  1.00
UV-Vis Ave. Time (sec)  0.1000
Beam Mode  Dual Beam
Baseline Correction  Off
Cycle Mode  Off
Method Log     :
Method Name    :
Date/Time stamp: 15/04/2026 1:06:08 PM
Method Modifications:
UVVIS SAT Changed: 15/04/2026 1:27:59 PM, Old:0.0125, New:0.1000
Common SAT Changed: 15/04/2026 1:27:59 PM, Old:0.0125, New:0.1000
Common Interval nm Changed: 15/04/2026 1:28:02 PM, Old:     5.00, New:     1.00
End Method Modifications
<Current Wavelength> , 201.0

