sample13,,sample14,,sample15,,
Wavelength (nm),Abs,Wavelength (nm),Abs,Wavelength (nm),Abs,
800.0151978,0.03581614792,800.0151978,0.03508286923,800.0151978,0.03298037127,
799.0057373,0.03569567949,799.0057373,0.03474101797,799.0057373,0.03323207796,
797.9959717,0.03546551988,797.9959717,0.03537162766,797.9959717,0.03337620944,
796.9857178,0.03590749204,796.9857178,0.03487215936,796.9857178,0.03292649984,
796.0099487,0.03602200001,796.0099487,0.03466856107,796.0099487,0.03334227577,
794.9989014,0.03598659486,794.9989014,0.03468159959,794.9989014,0.03295277804,
793.9874878,0.0359421894,793.9874878,0.0348995924,793.9874878,0.03333992884,
793.0105591,0.03606033698,793.0105591,0.03450202569,793.0105591,0.03252685443,
791.9983521,0.03563012183,791.9983521,0.03481303155,791.9983521,0.03277528659,
790.9857178,0.03566563874,790.9857178,0.03469483554,790.9857178,0.03278686851,
790.0076294,0.03592329472,790.0076294,0.0345460847,790.0076294,0.03325750679,
788.9942627,0.03589433432,788.9942627,0.03503631055,788.9942627,0.03298942,
788.0154419,0.03564776853,788.0154419,0.03481328487,788.0154419,0.03327382728,
787.0012817,0.03554951027,787.0012817,0.03466087952,787.0012817,0.03320620209,
785.9865723,0.03563475609,785.9865723,0.03443726152,785.9865723,0.03299709782,
785.0067139,0.03516513109,785.0067139,0.03395053744,785.0067139,0.03275474161,
783.991272,0.03554633632,783.991272,0.0336984992,783.991272,0.03265733272,
783.010498,0.03512499481,783.010498,0.03435852751,783.010498,0.03275102749,
781.9944458,0.03497472405,781.9944458,0.03420524299,781.9944458,0.03300908208,
781.0128784,0.03486085683,781.0128784,0.03448989242,781.0128784,0.03267968446,
779.9960327,0.03524350747,779.9960327,0.03384219855,779.9960327,0.03283206746,
779.0137329,0.03549998626,779.0137329,0.03407127783,779.0137329,0.03338767216,
777.9960327,0.03535503149,777.9960327,0.03420697898,777.9960327,0.03322662786,
777.0130615,0.03495645896,777.0130615,0.03447649628,777.0130615,0.03284499422,
775.9945679,0.03540661931,775.9945679,0.03436306491,775.9945679,0.03328629211,
775.0108032,0.03524853289,775.0108032,0.03427868709,775.0108032,0.0329711251,
773.9916382,0.03510986641,773.9916382,0.03425756469,773.9916382,0.03340246156,
773.0070801,0.03518464044,773.0070801,0.03451102227,773.0070801,0.03333875537,
771.9870605,0.03537280858,771.9870605,0.03443720564,771.9870605,0.03313713148,
771.0018921,0.03550765291,771.0018921,0.03465908766,771.0018921,0.03370132297,
770.0162964,0.03579835594,770.0162964,0.03511118516,770.0162964,0.03343648463,
768.9950562,0.03606303781,768.9950562,0.03528129682,768.9950562,0.03356309235,
768.0087891,0.03629779443,768.0087891,0.03555282578,768.0087891,0.03420756757,
766.9868164,0.03658178821,766.9868164,0.03556535766,766.9868164,0.03459435329,
765.9997559,0.03665106744,765.9997559,0.03584622964,765.9997559,0.03432812914,
765.0123291,0.03742591292,765.0123291,0.03644410148,765.0123291,0.0348395668,
763.9892578,0.03797745705,763.9892578,0.03704088554,763.9892578,0.03580735251,
763.0010986,0.03818874434,763.0010986,0.037443351,763.0010986,0.03614849597,
762.0126343,0.03835735098,762.0126343,0.036987748,762.0126343,0.03605741262,
760.9883423,0.03830156475,760.9883423,0.03767563775,760.9883423,0.03610660881,
759.9991455,0.03835387528,759.9991455,0.0372899361,759.9991455,0.03588182107,
759.0095825,0.03808564693,759.0095825,0.03685664013,759.0095825,0.03540103137,
757.9841919,0.03767216578,757.9841919,0.03636610135,757.9841919,0.03568657488,
756.9938965,0.03760164976,756.9938965,0.03607538342,756.9938965,0.03487373143,
756.0031738,0.03731523827,756.0031738,0.03599345684,756.0031738,0.03482352197,
755.012085,0.0370442383,755.012085,0.03520223871,755.012085,0.0345011279,
753.9852905,0.03657595813,753.9852905,0.03494495526,753.9852905,0.03423949704,
752.9934692,0.036399737,752.9934692,0.03492503613,752.9934692,0.03398936242,
752.0013428,0.03661423177,752.0013428,0.03485126421,752.0013428,0.03357828036,
751.0089111,0.03663577512,751.0089111,0.03466087952,751.0089111,0.03399860114,
750.0160522,0.03676524013,750.0160522,0.03490840271,750.0160522,0.03390404582,
748.9873657,0.03678707406,748.9873657,0.03493227437,748.9873657,0.03360118344,
747.9937744,0.03640688956,747.9937744,0.03470635787,747.9937744,0.03410048038,
746.9998779,0.03621376678,746.9998779,0.03456293046,746.9998779,0.0332868807,
746.0055542,0.0357882902,746.0055542,0.03430832177,746.0055542,0.03310849518,
745.0108643,0.03583472967,745.0108643,0.03367888927,745.0108643,0.03284513578,
744.0159302,0.03514632583,744.0159302,0.03345146775,744.0159302,0.03241809085,
742.9850464,0.03459390625,742.9850464,0.03292175382,742.9850464,0.0316760391,
741.9893799,0.0337292701,741.9893799,0.03242034838,741.9893799,0.0308789406,
740.9933472,0.0328386575,740.9933472,0.03148337081,740.9933472,0.03050175309,
739.9969482,0.03272886574,739.9969482,0.03094576113,739.9969482,0.02983879298,
739.0001831,0.03203733265,739.0001831,0.03048803471,739.0001831,0.02940209024,
738.0031128,0.03167080507,738.0031128,0.0298754219,738.0031128,0.0289804358,
737.0056763,0.03129473701,737.0056763,0.02938915417,737.0056763,0.02858059108,
736.0078735,0.03045357578,736.0078735,0.0290343184,736.0078735,0.02800014615,
735.0097656,0.0305042509,735.0097656,0.02869174443,735.0097656,0.02744193003,
734.0112305,0.02980812825,734.0112305,0.02813443355,734.0112305,0.02728905715,
733.0123901,0.02961412258,733.0123901,0.02792557888,733.0123901,0.02703592181,
732.0131836,0.02923817001,732.0131836,0.02781208046,732.0131836,0.02680377476,
731.0136719,0.02912114561,731.0136719,0.02743178234,731.0136719,0.02649850398,
730.013855,0.02898016013,730.013855,0.02703008056,730.013855,0.02641313523,
729.0136108,0.0285581965,729.0136108,0.02719267271,729.0136108,0.02615712769,
728.0130615,0.02861125208,728.0130615,0.02704057656,728.0130615,0.02642276324,
727.012146,0.02833551541,727.012146,0.02704914473,727.012146,0.02629744634,
726.0109253,0.02864600718,726.0109253,0.0273210872,726.0109253,0.02641855367,
725.0092773,0.0287610516,725.0092773,0.02714439295,725.0092773,0.02637575194,
724.0073853,0.02871660702,724.0073853,0.02708686143,724.0073853,0.0265287701,
723.0050659,0.02883673087,723.0050659,0.02742963098,723.0050659,0.02666282468,
722.0025635,0.02924010716,722.0025635,0.02776817419,722.0025635,0.02696336433,
720.9995117,0.02935716324,720.9995117,0.0281698145,720.9995117,0.02722128108,
719.9962158,0.02979945019,719.9962158,0.02872147411,719.9962158,0.02758804336,
718.9926147,0.03011504188,718.9926147,0.0288763456,718.9926147,0.02793485485,
717.9885864,0.03026075289,717.9885864,0.02935719118,717.9885864,0.02844942547,
716.984314,0.03063503839,716.984314,0.0299731791,716.984314,0.02884063125,
716.015564,0.03101776354,716.015564,0.03030938096,716.015564,0.02927923389,
715.0105591,0.03152091801,715.0105591,0.03086871281,715.0105591,0.02984256297,
714.005249,0.03196363151,714.005249,0.03132536635,714.005249,0.03039082699,
712.9995728,0.03312190622,712.9995728,0.03210703656,712.9995728,0.03117993847,
711.9935913,0.03354278952,711.9935913,0.03306156397,711.9935913,0.03182277828,
710.9873047,0.03428560495,710.9873047,0.03350559995,710.9873047,0.0324142687,
710.0165405,0.03472360224,710.0165405,0.03429641575,710.0165405,0.0331203118,
709.0095825,0.03546824306,709.0095825,0.03472393751,709.0095825,0.03377498686,
708.0021973,0.03600746021,708.0021973,0.03538058698,708.0021973,0.03420418128,
706.9946289,0.03675250337,706.9946289,0.03610278293,706.9946289,0.03511868045,
705.9866333,0.03747721389,705.9866333,0.03673909605,705.9866333,0.03591651842,
705.0142822,0.0381892249,705.0142822,0.03751861304,705.0142822,0.03659000993,
704.0055542,0.03907876834,704.0055542,0.03829873726,704.0055542,0.03721838072,
702.9966431,0.03969985992,702.9966431,0.03891200572,702.9966431,0.03783031926,
701.9873657,0.0404185988,701.9873657,0.03973761201,701.9873657,0.03889821842,
701.0137329,0.04135625437,701.0137329,0.04000331834,701.0137329,0.03947241232,
700.0037231,0.04201252013,700.0037231,0.0407910794,700.0037231,0.04013994709,
698.9934692,0.04291151091,698.9934692,0.04172512516,698.9934692,0.04098929092,
697.9829102,0.04365865514,697.9829102,0.0424920693,697.9829102,0.04195047542,
697.0079956,0.04414378107,697.0079956,0.04300058633,697.0079956,0.04260904342,
695.9967651,0.04491090775,695.9967651,0.04388180748,695.9967651,0.04287387803,
694.9851685,0.04530533776,694.9851685,0.04418427497,694.9851685,0.04368124157,
694.0093994,0.04590974003,694.0093994,0.04491684958,694.0093994,0.04418312758,
692.9971313,0.04654134437,692.9971313,0.04556337371,692.9971313,0.0449854359,
691.9846191,0.04707144573,691.9846191,0.0459122695,691.9846191,0.0454320088,
691.0078125,0.04789711908,691.0078125,0.04648038,691.0078125,0.04537424073,
689.9946289,0.0482212007,689.9946289,0.04734695703,689.9946289,0.04644180462,
689.017334,0.04886738956,689.017334,0.04747035727,689.017334,0.04686369374,
688.003418,0.04933392629,688.003418,0.04834637791,688.003418,0.04757258669,
686.9891968,0.04996011034,686.9891968,0.04864186794,686.9891968,0.04803501442,
686.0109863,0.05052345246,686.0109863,0.04942310974,686.0109863,0.04851226136,
684.9962158,0.05087557435,684.9962158,0.04956430197,684.9962158,0.04894103482,
684.017334,0.05152919888,684.017334,0.04978499189,684.017334,0.04936275259,
683.0018921,0.05187577754,683.0018921,0.05007951707,683.0018921,0.04957878217,
681.986084,0.05195133388,681.986084,0.05039362982,681.986084,0.04975219071,
681.0062866,0.0525714308,681.0062866,0.05101109669,681.0062866,0.05013506487,
679.9898682,0.05305334181,679.9898682,0.05120791122,679.9898682,0.05059903488,
679.0094604,0.05331771821,679.0094604,0.05148288608,679.0094604,0.05084018409,
677.9924316,0.05358826369,677.9924316,0.05179865658,677.9924316,0.05107599497,
677.0114136,0.05375911668,677.0114136,0.0517767556,677.0114136,0.05119908601,
675.9937744,0.05382741615,675.9937744,0.05232721567,675.9937744,0.0515300408,
675.012085,0.05463366583,675.012085,0.05250458792,675.012085,0.05169554055,
673.9938354,0.05463730544,673.9938354,0.0527439937,673.9938354,0.05208319798,
673.0116577,0.05485612527,673.0116577,0.05308311805,673.0116577,0.05252962187,
671.9926758,0.05506611988,671.9926758,0.05325386301,671.9926758,0.05240022391,
671.0098877,0.05526186898,671.0098877,0.05328373984,671.0098877,0.05291518942,
669.9902954,0.05558266863,669.9902954,0.05367442966,669.9902954,0.0529075861,
669.006897,0.05515413731,669.006897,0.05354694277,669.006897,0.05277099833,
667.9867554,0.05496342853,667.9867554,0.05324411765,667.9867554,0.05217834935,
667.0027466,0.05476702005,667.0027466,0.05364505202,667.0027466,0.05209419876,
665.9819946,0.05446528271,665.9819946,0.05294129997,665.9819946,0.05185594037,
664.9973145,0.05454328656,664.9973145,0.05313226208,664.9973145,0.05187650397,
664.0123901,0.05444400758,664.0123901,0.05311242864,664.0123901,0.05175429955,
662.9906616,0.05441686511,662.9906616,0.05327305943,662.9906616,0.05175289884,
662.005188,0.05454560742,662.005188,0.05337174982,662.005188,0.05194859207,
660.9828491,0.054589957,660.9828491,0.05346121266,660.9828491,0.05178034306,
659.9967651,0.05488164723,659.9967651,0.05352700129,659.9967651,0.05204376951,
659.010376,0.0548982732,659.010376,0.05386190489,659.010376,0.05221796036,
657.9870605,0.0550032407,657.9870605,0.05404216051,657.9870605,0.05228295177,
657.0001831,0.05483788624,657.0001831,0.05403673649,657.0001831,0.05205856636,
656.0128784,0.05522077158,656.0128784,0.05401504412,656.0128784,0.05217291787,
654.9887695,0.05546600372,654.9887695,0.05405110121,654.9887695,0.05226718262,
654.0009155,0.05535542592,654.0009155,0.05437552556,654.0009155,0.05213757232,
653.0127563,0.05556975305,653.0127563,0.05453154817,653.0127563,0.05240369961,
651.9876709,0.05549576879,651.9876709,0.05454965681,651.9876709,0.05232379958,
650.9989624,0.05623923615,650.9989624,0.05464176834,650.9989624,0.0525290966,
650.0100098,0.05598249659,650.0100098,0.05474435166,650.0100098,0.05248335004,
648.9840088,0.05618004501,648.9840088,0.05489363149,648.9840088,0.05271596089,
647.9944458,0.05611037835,647.9944458,0.05518940836,647.9944458,0.05273843929,
647.0045776,0.05616717041,647.0045776,0.05497600511,647.0045776,0.05282303318,
646.0144043,0.05626669899,646.0144043,0.05512042716,646.0144043,0.05282136798,
644.9873047,0.05628490821,644.9873047,0.05522562191,644.9873047,0.05302111059,
643.99646,0.05646027997,643.99646,0.05530055985,643.99646,0.05291346461,
643.0054932,0.05648227036,643.0054932,0.05523576587,643.0054932,0.05310400575,
642.0142212,0.05654135719,642.0142212,0.05544420704,642.0142212,0.05290223658,
640.9858398,0.05661050603,640.9858398,0.05548635498,640.9858398,0.0532387048,
639.9940186,0.05686587468,639.9940186,0.05560626462,639.9940186,0.05343427882,
639.0018311,0.05658608675,639.0018311,0.05579531193,639.0018311,0.05367486924,
638.0094604,0.0569046177,638.0094604,0.05600623414,638.0094604,0.05370846763,
637.0166626,0.05679892749,637.0166626,0.05617135391,637.0166626,0.05376266316,
635.9868774,0.05663601309,635.9868774,0.05620007962,635.9868774,0.05392124876,
634.9935913,0.05697733909,634.9935913,0.05623369664,634.9935913,0.05380394682,
634.000061,0.05741951987,634.000061,0.05631299317,634.000061,0.05413668603,
633.0062256,0.05740932748,633.0062256,0.05640603974,633.0062256,0.05430294946,
632.012085,0.05722190812,632.012085,0.05655857548,632.012085,0.05438077822,
631.0176392,0.0573079139,631.0176392,0.05656243861,631.0176392,0.05433436483,
629.986145,0.0574910827,629.986145,0.05641323328,629.986145,0.05438603088,
628.9911499,0.05746227503,628.9911499,0.0565260835,628.9911499,0.05465494841,
627.9959106,0.05774602666,627.9959106,0.05648840219,627.9959106,0.05452729017,
627.0003662,0.05796709657,627.0003662,0.05669550225,627.0003662,0.05488000438,
626.0046387,0.05837428197,626.0046387,0.05702054873,626.0046387,0.05501314253,
625.0085449,0.05842044577,625.0085449,0.05720117688,625.0085449,0.05512845144,
624.012207,0.05871605501,624.012207,0.05719686672,624.012207,0.05562800542,
623.015564,0.05864286795,623.015564,0.05729532987,623.015564,0.05572323129,
621.9817505,0.0589678064,621.9817505,0.0573952049,621.9817505,0.05579248443,
620.9845581,0.05937043577,620.9845581,0.05778763071,620.9845581,0.05633589253,
619.9871826,0.05966901034,619.9871826,0.05794156715,619.9871826,0.05656874925,
618.9893799,0.0598735325,618.9893799,0.05819568038,618.9893799,0.0567355901,
617.9914551,0.0601689443,617.9914551,0.05859259143,617.9914551,0.05729642138,
616.9931641,0.06051309034,616.9931641,0.05877728388,616.9931641,0.05751129612,
615.9946289,0.06081959605,615.9946289,0.0592790693,615.9946289,0.05801384151,
614.9957886,0.06134515628,614.9957886,0.05983588845,614.9957886,0.05854572728,
613.9967041,0.06159416586,613.9967041,0.06025845185,613.9967041,0.05891336873,
612.9974365,0.06212203577,612.9974365,0.06082963198,612.9974365,0.05977478251,
611.9976807,0.06263257563,611.9976807,0.06145669892,611.9976807,0.06027019769,
610.9979248,0.06357301772,610.9979248,0.06217547134,610.9979248,0.06099805981,
609.9976807,0.06450066715,609.9976807,0.06318952888,609.9976807,0.06218625605,
608.9973145,0.06575077772,608.9973145,0.06441184878,608.9973145,0.06344403327,
607.996582,0.06701184064,607.996582,0.06558971107,607.996582,0.06454631686,
606.9956665,0.06843164563,606.9956665,0.0669118464,606.9956665,0.0659570694,
605.9944458,0.06981505454,605.9944458,0.06829354167,605.9944458,0.06724206358,
604.9929199,0.071539931,604.9929199,0.07013836503,604.9929199,0.06890351325,
603.9911499,0.07370299101,603.9911499,0.07225202769,603.9911499,0.07091856003,
602.9891968,0.07593449205,602.9891968,0.07456061244,602.9891968,0.07316894829,
601.9868774,0.07874767482,601.9868774,0.0773556307,601.9868774,0.07603776455,
600.984314,0.08202699572,600.984314,0.08021574467,600.984314,0.07892201841,
599.9815063,0.08522791415,599.9815063,0.08350291848,599.9815063,0.08204454184,
599.015564,0.08868306875,599.015564,0.08719621599,599.015564,0.08545038104,
598.0122681,0.09257622808,598.0122681,0.09107813984,598.0122681,0.08918237686,
597.008667,0.09691981226,597.008667,0.09525126964,597.008667,0.09323147684,
596.0048218,0.1021635011,596.0048218,0.1001667976,596.0048218,0.09827367961,
595.0006714,0.1072756499,595.0006714,0.1051913723,595.0006714,0.1032502651,
593.9963989,0.112593621,593.9963989,0.1105811223,593.9963989,0.1085567698,
592.9916992,0.1179002523,592.9916992,0.1160712987,592.9916992,0.1139193177,
591.9868164,0.1238027215,591.9868164,0.1217500716,591.9868164,0.1196284741,
590.9816284,0.1297476143,590.9816284,0.1278150231,590.9816284,0.1256675422,
590.0134888,0.1357872039,590.0134888,0.1339019537,590.0134888,0.1315489113,
589.0078125,0.1422460079,589.0078125,0.1403354257,589.0078125,0.1381637454,
588.0018921,0.1488612294,588.0018921,0.1468838155,588.0018921,0.1445254982,
586.9956665,0.1545673162,586.9956665,0.1525473744,586.9956665,0.1504313648,
585.9891968,0.1602915227,585.9891968,0.1586160958,585.9891968,0.1563063264,
584.9825439,0.1662517786,584.9825439,0.1644043326,584.9825439,0.1620698273,
584.0128784,0.1718459576,584.0128784,0.1698666215,584.0128784,0.1680595428,
583.0056763,0.1779537797,583.0056763,0.1762635261,583.0056763,0.1738795191,
581.9981689,0.183025524,581.9981689,0.1813137531,581.9981689,0.1790852696,
580.9904785,0.1878711879,580.9904785,0.1860810965,580.9904785,0.1838186383,
579.9824829,0.1923988014,579.9824829,0.1906984299,579.9824829,0.188513279,
579.0115967,0.1961837858,579.0115967,0.1947180331,579.0115967,0.1924170256,
578.0031738,0.1999626607,578.0031738,0.1985090226,578.0031738,0.1962791532,
576.9944458,0.2033242881,576.9944458,0.2017946988,576.9944458,0.1997324079,
575.9854126,0.2059884518,575.9854126,0.2044012994,575.9854126,0.2023890316,
575.0136108,0.2082614601,575.0136108,0.2066452503,575.0136108,0.2045404017,
574.0041504,0.2099890709,574.0041504,0.2085402012,574.0041504,0.2065287381,
572.9943848,0.2113651186,572.9943848,0.2098902911,572.9943848,0.2079217285,
571.984436,0.2124859989,571.984436,0.211297363,571.984436,0.2094099522,
571.0115967,0.213500917,571.0115967,0.2120597214,571.0115967,0.2102754712,
570.0011597,0.2141279429,570.0011597,0.2130105197,570.0011597,0.2111292481,
568.9904175,0.2145247906,568.9904175,0.2132921964,568.9904175,0.2114149779,
568.0169067,0.2145721316,568.0169067,0.2133194357,568.0169067,0.211563006,
567.0056763,0.2146237791,567.0056763,0.2132898271,567.0056763,0.2117517292,
565.9942017,0.2146442235,565.9942017,0.2134292275,565.9942017,0.2117999494,
564.9824829,0.2144799083,564.9824829,0.2134581804,564.9824829,0.2117306143,
564.0080566,0.2143302411,564.0080566,0.2131588459,564.0080566,0.2114476264,
562.9957886,0.2141471505,562.9957886,0.2131910175,562.9957886,0.2115867287,
561.9833984,0.213895455,561.9833984,0.2128450871,561.9833984,0.211317271,
561.0081787,0.2138740271,561.0081787,0.2128735632,561.0081787,0.2111657113,
559.9953003,0.2137323618,559.9953003,0.2126456797,559.9953003,0.2111535817,
558.9820557,0.2136036009,558.9820557,0.2127316892,558.9820557,0.2112578154,
558.0062256,0.2136167288,558.0062256,0.212863937,558.0062256,0.2113821656,
556.9924927,0.213884145,556.9924927,0.2130760103,556.9924927,0.2116701752,
556.0161743,0.2138226032,556.0161743,0.2133620828,556.0161743,0.2115494013,
555.0020752,0.2140125483,555.0020752,0.2133804113,555.0020752,0.2116534859,
553.9876709,0.2142087817,553.9876709,0.213457793,553.9876709,0.2121546268,
553.0106201,0.2145899534,553.0106201,0.2138124853,553.0106201,0.2124009728,
551.9957886,0.2147588581,551.9957886,0.2140100598,551.9957886,0.2125631124,
551.0183105,0.2149750739,551.0183105,0.2143965662,551.0183105,0.2128648162,
550.0029907,0.2152396441,550.0029907,0.2146725804,550.0029907,0.2132838219,
548.9873657,0.2156455815,548.9873657,0.2149050981,548.9873657,0.2137632221,
548.0091553,0.2159744799,548.0091553,0.2154135555,548.0091553,0.2140388638,
546.993103,0.2168047428,546.993103,0.2158567607,546.993103,0.2145871967,
546.0145264,0.2173024863,546.0145264,0.2163490206,546.0145264,0.2151127309,
544.9979858,0.2177226692,544.9979858,0.2170086801,544.9979858,0.2154884934,
543.9812012,0.2183840722,543.9812012,0.2174906731,543.9812012,0.2159743905,
543.0018921,0.2189265192,543.0018921,0.218163535,543.0018921,0.2165341228,
541.9846191,0.2196357399,541.9846191,0.2186731994,541.9846191,0.2170553952,
541.0048218,0.2206825465,541.0048218,0.2195526809,541.0048218,0.2180318832,
539.9872437,0.2214376926,539.9872437,0.220374018,539.9872437,0.2187388241,
539.006958,0.2222287357,539.006958,0.2213050723,539.006958,0.2194423229,
537.9888306,0.2228980362,537.9888306,0.221941635,537.9888306,0.2201726139,
537.0081177,0.2238226086,537.0081177,0.2227862924,537.0081177,0.220993951,
535.9894409,0.2246988714,535.9894409,0.2236430049,535.9894409,0.2219731808,
535.0083618,0.2254303694,535.0083618,0.2245485634,535.0083618,0.2229103595,
533.9892578,0.2264247239,533.9892578,0.2255102992,533.9892578,0.2239213586,
533.0076904,0.2274999171,533.0076904,0.226582408,533.0076904,0.2249944955,
531.9882202,0.2285383642,531.9882202,0.2275756299,531.9882202,0.2259217352,
531.0061646,0.2294224352,531.0061646,0.2287308276,531.0061646,0.2270960212,
529.986145,0.2309861481,529.986145,0.2303141803,529.986145,0.2285042256,
529.0036621,0.2324025929,529.0036621,0.2317447066,529.0036621,0.2299687564,
527.9832764,0.2338016629,527.9832764,0.2331213802,527.9832764,0.2314049751,
527.0003662,0.2350665033,527.0003662,0.2345357835,527.0003662,0.2327038646,
526.0172729,0.2365102023,526.0172729,0.2359193861,526.0172729,0.2340988368,
524.9961548,0.2380367815,524.9961548,0.2375366241,524.9961548,0.2357346565,
524.0125732,0.2395918667,524.0125732,0.2389526814,524.0125732,0.2373939604,
522.9909668,0.2412250489,522.9909668,0.2409078479,522.9909668,0.2391183525,
522.0070801,0.2429369688,522.0070801,0.2427296937,522.0070801,0.2409809679,
520.9849854,0.2450730652,520.9849854,0.2447318882,520.9849854,0.2431619912,
520.0006104,0.2471411377,520.0006104,0.2467769533,520.0006104,0.2451947331,
519.0159912,0.24928312,519.0159912,0.2488962561,519.0159912,0.2473440915,
517.9932861,0.2518593073,517.9932861,0.2511343658,517.9932861,0.2498306334,
517.0082397,0.2540357709,517.0082397,0.2532027066,517.0082397,0.251737237,
515.9851074,0.2564569116,515.9851074,0.2556925416,515.9851074,0.2543940842,
514.9996338,0.2591429353,514.9996338,0.2583406568,514.9996338,0.2571768463,
514.0139771,0.2617594898,514.0139771,0.2609659135,514.0139771,0.2598094642,
512.9901123,0.2647369206,512.9901123,0.2639385164,512.9901123,0.2626468539,
512.0039673,0.2679898441,512.0039673,0.2669817209,512.0039673,0.2659708261,
511.0176392,0.2711488307,511.0176392,0.2698886991,511.0176392,0.2688805163,
509.9931946,0.2745920122,509.9931946,0.2731255591,509.9931946,0.272231847,
509.0064392,0.2776154578,509.0064392,0.2761645317,509.0064392,0.275075376,
507.9815369,0.2805864215,507.9815369,0.2790774405,507.9815369,0.278221786,
506.9943542,0.2837831676,506.9943542,0.2820106745,506.9943542,0.2812191546,
506.007019,0.2865729928,506.007019,0.2847619653,506.007019,0.2840963304,
504.9814148,0.2892297208,504.9814148,0.2874950767,504.9814148,0.286619395,
503.9936523,0.2916146219,503.9936523,0.2898064852,503.9936523,0.2892527282,
503.0055847,0.2940948009,503.0055847,0.292181462,503.0055847,0.2914084792,
502.0173645,0.296489954,502.0173645,0.2946581244,502.0173645,0.2937034667,
500.9910278,0.2992309332,500.9910278,0.2973093987,500.9910278,0.2963920236,
500.0023499,0.3013584316,500.0023499,0.2995722592,500.0023499,0.2987623513,
499.0135498,0.3038639724,499.0135498,0.3020183444,499.0135498,0.300837487,
497.9864807,0.3058857024,497.9864807,0.3041625321,497.9864807,0.3032022417,
496.9972534,0.3083087504,496.9972534,0.3064340353,496.9972534,0.305298835,
496.0078125,0.3108564913,496.0078125,0.3089315295,496.0078125,0.3077712357,
495.018219,0.3133453429,495.018219,0.3115698397,495.018219,0.310192883,
493.9902039,0.3159822524,493.9902039,0.3140796423,493.9902039,0.3126277328,
493.0001526,0.3183102608,493.0001526,0.3164260387,493.0001526,0.3150208592,
492.0098572,0.3208137155,492.0098572,0.3188225627,492.0098572,0.3172504902,
490.9813843,0.3234840631,490.9813843,0.321521163,490.9813843,0.3197442889,
489.9907227,0.3262529373,489.9907227,0.324295789,489.9907227,0.3224766254,
488.9998474,0.3290551305,488.9998474,0.3271026313,488.9998474,0.3252097964,
488.0087585,0.3315187693,488.0087585,0.3294693828,488.0087585,0.3276032209,
487.0175476,0.3339476883,487.0175476,0.3320367336,487.0175476,0.3300675452,
485.9879456,0.3370545208,485.9879456,0.3350052238,485.9879456,0.3330808282,
484.9963074,0.3399811685,484.9963074,0.3378695548,484.9963074,0.3359707296,
484.0044556,0.3426131904,484.0044556,0.3405308127,484.0044556,0.3385042846,
483.0123596,0.3454194963,483.0123596,0.3433859944,483.0123596,0.3411161005,
481.9819946,0.3480154872,481.9819946,0.3460868001,481.9819946,0.3439603448,
480.989502,0.3508859873,480.989502,0.3491098583,480.989502,0.3469603658,
479.9967957,0.353805244,479.9967957,0.3519629836,479.9967957,0.3497874439,
479.0039368,0.3565520942,479.0039368,0.3548762202,479.0039368,0.352809459,
478.0109558,0.3592788577,478.0109558,0.3576139212,478.0109558,0.3554145694,
477.0176697,0.3616940379,477.0176697,0.360106796,477.0176697,0.3580343723,
475.9860229,0.3643725514,475.9860229,0.3631572723,475.9860229,0.3609603643,
474.9924316,0.3672694564,474.9924316,0.3658067584,474.9924316,0.3636904955,
473.9985657,0.3703623712,473.9985657,0.3687515557,473.9985657,0.3665889204,
473.0045166,0.3731753528,473.0045166,0.3715493977,473.0045166,0.3694090247,
472.0103455,0.3755285442,472.0103455,0.3740166426,472.0103455,0.3719488978,
471.0158691,0.3782360554,471.0158691,0.3766612709,471.0158691,0.3743262291,
469.9830933,0.3807407618,469.9830933,0.3791615069,469.9830933,0.376932323,
468.9882813,0.3832485378,468.9882813,0.3815648854,468.9882813,0.3793028593,
467.9932861,0.3857806623,467.9932861,0.3843662739,467.9932861,0.3820089102,
466.9981384,0.3880509436,466.9981384,0.3868592083,466.9981384,0.3843455017,
466.0027466,0.3906825781,466.0027466,0.3894662261,466.0027466,0.3867188394,
465.0072021,0.3930105865,465.0072021,0.3918656111,465.0072021,0.3894822598,
464.0114136,0.3955128491,464.0114136,0.3944983184,464.0114136,0.3919278085,
463.0155029,0.3983020186,463.0155029,0.3970606029,463.0155029,0.3945823014,
461.9810181,0.4013196528,461.9810181,0.4001360834,461.9810181,0.3977752924,
460.9847107,0.4039904773,460.9847107,0.4029913843,460.9847107,0.400591433,
459.9881897,0.4065982699,459.9881897,0.4056274593,459.9881897,0.4031802714,
458.9915466,0.4092468917,458.9915466,0.4082980156,458.9915466,0.4061179161,
457.9945984,0.4118558466,457.9945984,0.411083132,457.9945984,0.4088182151,
456.9975281,0.4144735336,456.9975281,0.4137544632,456.9975281,0.4114546776,
456.0002747,0.4165689349,456.0002747,0.4157537818,456.0002747,0.413734138,
455.0028076,0.4184553027,455.0028076,0.417647481,455.0028076,0.4157338738,
454.005188,0.4199057519,454.005188,0.4193377495,454.005188,0.4172648489,
453.0073853,0.421564877,453.0073853,0.4208594561,453.0073853,0.4190764427,
452.0093994,0.4234529734,452.0093994,0.4228368998,452.0093994,0.4210907221,
451.0112,0.4252553582,451.0112,0.4246884286,451.0112,0.4228290617,
450.0128174,0.4270254374,450.0128174,0.4262936711,450.0128174,0.4246813059,
449.0143127,0.4287191331,449.0143127,0.427954495,449.0143127,0.426415056,
448.0155945,0.4307073355,448.0155945,0.4297918081,448.0155945,0.4283268154,
447.0166626,0.4328308403,447.0166626,0.4321104586,447.0166626,0.4307124615,
446.0175171,0.4353959262,446.0175171,0.4344769716,446.0175171,0.4329848289,
445.0182495,0.4376413822,445.0182495,0.4368050992,445.0182495,0.4353994727,
444.0188293,0.4397510588,444.0188293,0.4387070835,444.0188293,0.437394619,
443.0191345,0.4418955445,443.0191345,0.4408315718,443.0191345,0.4395174086,
441.980896,0.44470644,441.980896,0.4434227049,441.980896,0.4421056807,
440.980896,0.4471639395,440.980896,0.4460684955,440.980896,0.4446367621,
440.0191956,0.4497273862,440.0191956,0.4486900568,440.0191956,0.4472231567,
439.0187988,0.4522001147,439.0187988,0.4511435926,439.0187988,0.4496900737,
438.01828,0.4546174705,438.01828,0.4535014033,438.01828,0.451998353,
437.0175476,0.4574676752,437.0175476,0.4563098848,437.0175476,0.454820931,
436.0166321,0.4602504373,436.0166321,0.459148556,436.0166321,0.4576278329,
435.015564,0.4630999267,435.015564,0.4619204402,435.015564,0.4604794979,
434.0143433,0.4655254781,434.0143433,0.4646183848,434.0143433,0.4630947709,
433.0129395,0.4682883918,433.0129395,0.4672162533,433.0129395,0.4656033516,
432.0112915,0.4710550904,432.0112915,0.4701439738,432.0112915,0.468328625,
431.009491,0.4738396108,431.009491,0.4729823768,431.009491,0.4711002409,
430.0075684,0.4766234756,430.0075684,0.4757944942,430.0075684,0.473904103,
429.0054321,0.479190886,429.0054321,0.4783155918,429.0054321,0.4763256013,
428.0031128,0.4815454185,428.0031128,0.4807896316,428.0031128,0.4787013829,
427.0006409,0.4841133654,427.0006409,0.4832926691,427.0006409,0.4813822508,
425.9980164,0.4868226945,425.9980164,0.4860011637,425.9980164,0.4839318991,
424.9951477,0.4894817472,424.9951477,0.4886997342,424.9951477,0.4865621924,
423.992157,0.4918085933,423.992157,0.4911847115,423.992157,0.4890622795,
422.9889832,0.493950218,422.9889832,0.4934426546,422.9889832,0.4912551045,
421.9856567,0.4968254864,421.9856567,0.4961305559,421.9856567,0.4939930141,
420.9821167,0.4993545413,420.9821167,0.4988674521,420.9821167,0.4966058135,
420.0170593,0.5021045208,420.0170593,0.5016276836,420.0170593,0.4991491735,
419.0131531,0.5046200752,419.0131531,0.5043683648,419.0131531,0.5015693307,
418.0091858,0.5071784854,418.0091858,0.5070095062,418.0091858,0.5042579174,
417.0049133,0.5097848177,417.0049133,0.5097293854,417.0049133,0.5070106387,
416.0006104,0.5126239657,416.0006104,0.5125630498,416.0006104,0.5098158717,
414.9960327,0.5155031085,414.9960327,0.5155899525,414.9960327,0.5125821233,
413.991394,0.5183062553,413.991394,0.5185603499,413.991394,0.5156317949,
412.9864807,0.520739615,412.9864807,0.5212655067,412.9864807,0.5182848573,
411.9814453,0.523671329,411.9814453,0.524255991,411.9814453,0.52094841,
411.0149231,0.5264871716,411.0149231,0.5271788836,411.0149231,0.5239600539,
410.009552,0.5292618871,410.009552,0.5300526023,410.009552,0.5267921686,
409.0039673,0.5324992537,409.0039673,0.5333349705,409.0039673,0.5298035741,
407.998291,0.5352982283,407.998291,0.5364535451,407.998291,0.5326123238,
406.9924316,0.5383977294,406.9924316,0.5395387411,406.9924316,0.5354636908,
405.9863892,0.5415075421,405.9863892,0.5427881479,405.9863892,0.5389272571,
405.0188904,0.5448489189,405.0188904,0.5460745096,405.0188904,0.5419371724,
404.0125427,0.5481555462,404.0125427,0.5493567586,404.0125427,0.545345664,
403.0060425,0.5512884855,403.0060425,0.5524542332,403.0060425,0.5486303568,
401.9992981,0.5546500683,401.9992981,0.5558922291,401.9992981,0.5518626571,
400.9924316,0.5583124757,400.9924316,0.5593755245,400.9924316,0.5553534031,
399.9854431,0.5617138743,399.9854431,0.5629444122,399.9854431,0.5586005449,
399.0169983,0.5654214025,399.0169983,0.5665546656,399.0169983,0.5622735023,
398.0096741,0.5688244104,398.0096741,0.570204258,398.0096741,0.5660057068,
397.0021973,0.5722818375,397.0021973,0.5737749338,397.0021973,0.5695378184,
395.9945374,0.5761296153,395.9945374,0.577658534,395.9945374,0.5731080174,
394.9867249,0.5800098181,394.9867249,0.5815252066,394.9867249,0.5772306919,
394.0174866,0.5838476419,394.0174866,0.5852143168,394.0174866,0.5806968212,
393.0093384,0.5877620578,393.0093384,0.5893106461,393.0093384,0.5850635171,
392.0010681,0.5922131538,392.0010681,0.5934669971,392.0010681,0.5890336037,
390.9925842,0.5961008668,390.9925842,0.5972849727,390.9925842,0.5929406285,
389.9839478,0.600128293,389.9839478,0.6015708447,389.9839478,0.5972472429,
389.0140076,0.6043963432,389.0140076,0.6056344509,389.0140076,0.6013221145,
388.0050964,0.6087095141,388.0050964,0.610093236,388.0050964,0.6057063341,
386.9960022,0.6128658652,386.9960022,0.6139010191,386.9960022,0.6097005606,
385.9867859,0.616940558,385.9867859,0.6181994081,385.9867859,0.6137597561,
385.0162048,0.6211869717,385.0162048,0.622266531,385.0162048,0.618073523,
384.0066223,0.6254243851,384.0066223,0.6267909408,384.0066223,0.6226244569,
382.9969177,0.6301627755,382.9969177,0.63115412,382.9969177,0.6271013618,
381.9870605,0.6347580552,381.9870605,0.6354913712,381.9870605,0.6320729852,
381.0158997,0.6391921639,381.0158997,0.6401005387,381.0158997,0.6363451481,
380.0057373,0.6438365579,380.0057373,0.6448697448,380.0057373,0.641025424,
378.9954224,0.649099946,378.9954224,0.6503905654,378.9954224,0.6462894678,
377.9848938,0.6541942358,377.9848938,0.6555961967,377.9848938,0.6516965628,
377.0131836,0.6591182351,377.0131836,0.6595781446,377.0131836,0.6560733914,
376.0024109,0.6639406681,376.0024109,0.6642484069,376.0024109,0.6611247659,
374.9914551,0.668989718,374.9914551,0.6689264774,374.9914551,0.6659892797,
374.0192566,0.6738140583,374.0192566,0.673961103,374.0192566,0.6708447337,
373.0080261,0.6797227263,373.0080261,0.6793757677,373.0080261,0.6765943766,
371.9966431,0.6855313182,371.9966431,0.6847161651,371.9966431,0.6821640134,
370.9851074,0.6908653975,370.9851074,0.689579308,370.9851074,0.6872805357,
370.0123596,0.69605124,370.0123596,0.6950151324,370.0123596,0.6928196549,
369.0005188,0.700922966,369.0005188,0.6999236941,369.0005188,0.6979133487,
367.9885559,0.7067848444,367.9885559,0.7060168386,367.9885559,0.7037442923,
367.0153503,0.7115687728,367.0153503,0.7102149725,367.0153503,0.7090619206,
366.0030518,0.7175222635,366.0030518,0.7159499526,366.0030518,0.7135221362,
364.9906311,0.7225224376,364.9906311,0.7222601175,364.9906311,0.7198287845,
364.0169983,0.7283905149,364.0169983,0.7268326879,364.0169983,0.7255417109,
363.0043335,0.7354980707,363.0043335,0.7340250611,363.0043335,0.7324470878,
361.9914246,0.7405871749,361.9914246,0.7394315004,361.9914246,0.7378968,
361.0173645,0.7456290126,361.0173645,0.744882524,361.0173645,0.7430528402,
360.0042419,0.751282692,360.0042419,0.7506236434,360.0042419,0.7485107183,
358.9909363,0.757584095,358.9909363,0.7570676804,358.9909363,0.7549675703,
358.0164795,0.7640593052,358.0164795,0.7636088133,358.0164795,0.7617521286,
357.0028992,0.7694129944,357.0028992,0.7687837481,357.0028992,0.7667632699,
355.9891663,0.775372386,355.9891663,0.7751635909,355.9891663,0.7728998661,
355.0142822,0.7819945812,355.0142822,0.7812658548,355.0142822,0.778983891,
354.0002747,0.7886121273,354.0002747,0.7875632644,354.0002747,0.7856129408,
352.9861145,0.7950659394,352.9861145,0.7946506739,352.9861145,0.7920345068,
352.0108032,0.8017551303,352.0108032,0.8011397719,352.0108032,0.7989699841,
350.9963989,0.8081843257,350.9963989,0.80771631,350.9963989,0.8054835796,
349.9818115,0.815184474,349.9818115,0.8142151833,349.9818115,0.8117181659,
349.0061035,0.8216563463,349.0061035,0.8202272654,349.0061035,0.8174602985,
347.9912109,0.8290590048,347.9912109,0.8275045753,347.9912109,0.8251813054,
347.0152588,0.8360489607,347.0152588,0.8343425989,347.0152588,0.8326439857,
346.0001526,0.8430737853,346.0001526,0.841299355,346.0001526,0.8392742276,
344.9848328,0.8503012657,344.9848328,0.8492901921,344.9848328,0.846501708,
344.0084839,0.8574851751,344.0084839,0.855591476,344.0084839,0.853581965,
342.9929199,0.8660498857,342.9929199,0.8643505573,342.9929199,0.8608371019,
342.0163269,0.8726035357,342.0163269,0.8714268804,342.0163269,0.8680945039,
341.0004883,0.8799495697,341.0004883,0.8779613376,341.0004883,0.87641716,
339.9845276,0.8883094788,339.9845276,0.8859588504,339.9845276,0.8840101957,
339.0074768,0.8950895667,339.0074768,0.8948574662,339.0074768,0.8922526836,
337.9912415,0.9050014019,337.9912415,0.9033505321,337.9912415,0.901073277,
337.0139465,0.9132903814,337.0139465,0.9106586576,337.0139465,0.9093443155,
335.9974365,0.9214033484,335.9974365,0.9206929803,335.9974365,0.9185689688,
334.9808044,0.9312136173,334.9808044,0.9290798306,334.9808044,0.926823318,
334.0031128,0.9408577085,334.0031128,0.9395791888,334.0031128,0.9363999963,
332.9861755,0.9509567618,332.9861755,0.9488869309,332.9861755,0.9475457668,
332.0082703,0.9598837495,332.0082703,0.9583728313,332.0082703,0.9563745856,
330.9911194,0.9702357054,330.9911194,0.9687901139,330.9911194,0.9661362171,
330.0129089,0.9806170464,330.0129089,0.9797072411,330.0129089,0.97610116,
328.9954529,0.990375638,328.9954529,0.9903362989,328.9954529,0.9878773689,
328.0170288,1.00274694,328.0170288,1.00216496,328.0170288,0.9997686148,
326.9993286,1.014297366,326.9993286,1.013365746,326.9993286,1.010758758,
325.9814758,1.025822759,325.9814758,1.023649096,325.9814758,1.022375941,
325.002655,1.036633849,325.002655,1.035878539,325.002655,1.033257842,
323.9845581,1.04836297,323.9845581,1.048309922,323.9845581,1.045887828,
323.0054932,1.062162638,323.0054932,1.061559319,323.0054932,1.058868408,
321.9871216,1.074522138,321.9871216,1.074468255,321.9871216,1.07185936,
321.007782,1.087158084,321.007782,1.087445021,321.007782,1.084177613,
319.9891663,1.101911306,319.9891663,1.102042198,319.9891663,1.099741936,
319.009613,1.114427567,319.009613,1.114050031,319.009613,1.111552835,
317.9907837,1.128983974,317.9907837,1.128707767,317.9907837,1.126740098,
317.0109253,1.143462777,317.0109253,1.142766356,317.0109253,1.140196323,
315.9918213,1.15818274,315.9918213,1.157637596,315.9918213,1.15593946,
315.0117493,1.171890855,315.0117493,1.17191124,315.0117493,1.169950247,
313.9924011,1.185044885,313.9924011,1.185015321,313.9924011,1.183125615,
313.0121155,1.202874422,313.0121155,1.201699376,313.0121155,1.200142741,
311.9924622,1.218649507,311.9924622,1.217936277,311.9924622,1.216047645,
311.0119324,1.233251572,311.0119324,1.232888818,311.0119324,1.230756402,
309.9920654,1.250729084,309.9920654,1.250676274,309.9920654,1.248144031,
309.0112915,1.269580722,309.0112915,1.269030452,309.0112915,1.264977813,
307.9911499,1.288401723,307.9911499,1.28702867,307.9911499,1.284524202,
307.0101624,1.307227254,307.0101624,1.306976438,307.0101624,1.303824544,
305.9897461,1.324903965,305.9897461,1.325511575,305.9897461,1.321987271,
305.0085449,1.345523477,305.0085449,1.345356822,305.0085449,1.34205389,
303.987915,1.365941763,303.987915,1.365251064,303.987915,1.363225341,
303.0064392,1.389695048,303.0064392,1.388522506,303.0064392,1.38637042,
301.9855652,1.41017139,301.9855652,1.409557104,301.9855652,1.407496333,
301.0038452,1.431741714,301.0038452,1.4304111,301.0038452,1.427628875,
299.9827881,1.454523325,299.9827881,1.453028321,299.9827881,1.452874422,
299.0008545,1.477278352,299.0008545,1.477222085,299.0008545,1.47464776,
298.0187683,1.504352331,298.0187683,1.50295794,298.0187683,1.49990499,
296.9973145,1.527069569,296.9973145,1.525292993,296.9973145,1.522942781,
296.0150452,1.551265836,296.0150452,1.54950285,296.0150452,1.547646523,
294.9933472,1.580700755,294.9933472,1.578821778,294.9933472,1.575829148,
294.0108337,1.605587363,294.0108337,1.603014708,294.0108337,1.601920724,
292.9888916,1.635837078,292.9888916,1.635237098,292.9888916,1.633265615,
292.0061646,1.666588545,292.0061646,1.662159324,292.0061646,1.66113162,
290.9840393,1.694452763,290.9840393,1.691954494,290.9840393,1.691587448,
290.0010681,1.726476192,290.0010681,1.722216606,290.0010681,1.720253348,
289.0180054,1.759568214,289.0180054,1.757898331,289.0180054,1.755739689,
287.9954834,1.798638105,287.9954834,1.792026997,287.9954834,1.791393399,
287.0121765,1.833408475,287.0121765,1.830140352,287.0121765,1.826210499,
285.9894104,1.867074132,285.9894104,1.863552451,285.9894104,1.861083031,
285.0059204,1.907997251,285.0059204,1.903283358,285.0059204,1.903120279,
283.9829712,1.947505474,283.9829712,1.941676736,283.9829712,1.938846588,
282.9992676,1.991813302,282.9992676,1.986177564,282.9992676,1.982710481,
282.0154114,2.031554222,282.0154114,2.02466011,282.0154114,2.020156145,
280.9920654,2.070423365,280.9920654,2.067291498,280.9920654,2.066165924,
280.0080566,2.119490385,280.0080566,2.107480764,280.0080566,2.105995417,
278.9845276,2.16324544,278.9845276,2.158369064,278.9845276,2.153203011,
278.0002747,2.207410097,278.0002747,2.200125933,278.0002747,2.196403742,
277.0158997,2.25511241,277.0158997,2.254976749,277.0158997,2.238013983,
275.9920044,2.302994728,275.9920044,2.294329166,275.9920044,2.298136473,
275.0074463,2.347127676,275.0074463,2.337108374,275.0074463,2.345046997,
273.9833679,2.403843164,273.9833679,2.401079178,273.9833679,2.397484064,
272.9985657,2.441814184,272.9985657,2.430485487,272.9985657,2.424474478,
272.0137024,2.482771397,272.0137024,2.473978281,272.0137024,2.472637653,
270.9892883,2.507553816,270.9892883,2.504621506,270.9892883,2.505455017,
270.0041504,2.559848547,270.0041504,2.561153889,270.0041504,2.554591656,
269.0189514,2.595718145,269.0189514,2.595291138,269.0189514,2.581607342,
267.9942322,2.654111147,267.9942322,2.633013964,267.9942322,2.627759933,
267.0088196,2.684221029,267.0088196,2.660566807,267.0088196,2.650407314,
265.9838867,2.711714506,265.9838867,2.700762749,265.9838867,2.706268549,
264.9982605,2.74047184,264.9982605,2.708671331,264.9982605,2.72366643,
264.0125427,2.762310743,264.0125427,2.745239735,264.0125427,2.730870962,
262.9872742,2.813837528,262.9872742,2.784205437,262.9872742,2.786356211,
262.0013733,2.804593086,262.0013733,2.787256956,262.0013733,2.786235094,
261.0153198,2.85352993,261.0153198,2.837640285,261.0153198,2.846281528,
259.9897766,2.86754775,259.9897766,2.864884138,259.9897766,2.857795954,
259.00354,2.867950916,259.00354,2.878736496,259.00354,2.885026455,
258.0172424,2.916954041,258.0172424,2.897947788,258.0172424,2.905695915,
256.9913635,2.900531292,256.9913635,2.913522005,256.9913635,2.928186178,
256.0048523,2.921277285,256.0048523,2.924567938,256.0048523,2.949751616,
255.0182037,2.931899309,255.0182037,2.912446976,255.0182037,2.966303587,
253.9920349,2.942395926,253.9920349,2.932586432,253.9920349,2.976856947,
253.0052643,2.977308035,253.0052643,2.965990305,253.0052643,2.974906683,
252.0183411,2.976830006,252.0183411,2.983469963,252.0183411,3.001475573,
250.9918518,2.971688747,250.9918518,2.974112272,250.9918518,2.983597279,
250.0047607,3.019774914,250.0047607,3.010081053,250.0047607,3.021977901,
249.0175476,3.038716078,249.0175476,3.002442837,249.0175476,3.019575834,
247.9907837,3.060160875,247.9907837,3.051029444,247.9907837,3.037994146,
247.0034027,3.06657958,247.0034027,3.072601795,247.0034027,3.053709507,
246.0159149,3.072634935,246.0159149,3.074081898,246.0159149,3.038615227,
244.9888458,3.083675623,244.9888458,3.068131208,244.9888458,3.062832355,
244.0011749,3.101114035,244.0011749,3.086583376,244.0011749,3.070649624,
243.0133972,3.09739852,243.0133972,3.103497267,243.0133972,3.082098484,
241.9860687,3.109017134,241.9860687,3.13344574,241.9860687,3.101397753,
240.9981232,3.10064435,240.9981232,3.103408098,240.9981232,3.104259968,
240.0100861,3.104766369,240.0100861,3.103641987,240.0100861,3.081381083,
238.9824371,3.140392303,238.9824371,3.153672695,238.9824371,3.089863062,
237.9942169,3.16582346,237.9942169,3.119693995,237.9942169,3.116039991,
237.0058899,3.176768064,237.0058899,3.109422207,237.0058899,3.231866121,
236.0175171,3.177105904,236.0175171,3.179495335,236.0175171,3.169570446,
234.989502,3.211385965,234.989502,3.194490194,234.989502,3.119857311,
234.0009003,3.221621513,234.0009003,3.211768627,234.0009003,3.183471203,
233.0122528,3.143932581,233.0122528,3.201104403,233.0122528,3.198976517,
231.9839172,3.25965786,231.9839172,3.267488241,231.9839172,3.279400826,
230.9950867,3.348816156,230.9950867,3.280221939,230.9950867,3.315690517,
230.0061493,3.235061407,230.0061493,3.255188942,230.0061493,3.278754711,
229.0171204,3.270750284,229.0171204,3.330713272,229.0171204,3.219680548,
227.9884491,3.352654219,227.9884491,3.376042843,227.9884491,3.352532387,
226.9992676,3.403792143,226.9992676,3.382070065,226.9992676,3.417330027,
226.0099945,3.435857534,226.0099945,3.394938469,226.0099945,3.427685738,
224.9810333,3.41014123,224.9810333,3.41633749,224.9810333,3.413932085,
223.9916077,3.434787512,223.9916077,3.39404273,223.9916077,3.424270868,
223.0020447,3.457020998,223.0020447,3.515299797,223.0020447,3.517265081,
222.0124207,3.482688427,222.0124207,3.490015507,222.0124207,3.48288703,
220.9831238,3.512248516,220.9831238,3.480149746,220.9831238,3.444610834,
219.9933319,3.544806957,219.9933319,3.453569651,219.9933319,3.467226744,
219.0034485,3.459109306,219.0034485,3.464691877,219.0034485,3.457744837,
218.013504,3.450517654,218.013504,3.506371498,218.013504,3.432006836,
216.9838562,3.420614243,216.9838562,3.487891674,216.9838562,3.421267271,
215.9937286,3.481100082,215.9937286,3.500106573,215.9937286,3.422088146,
215.00354,3.50861311,215.00354,3.580984116,215.00354,3.50602603,
214.0132141,3.581544876,214.0132141,3.577024937,214.0132141,3.459467173,
212.9832611,3.562608957,212.9832611,3.487988234,212.9832611,3.468981028,
211.9927979,3.574583054,211.9927979,3.617472172,211.9927979,3.565933704,
211.0022888,3.53358531,211.0022888,3.519868374,211.0022888,3.522467613,
210.0116425,3.554374218,210.0116425,3.567112684,210.0116425,3.524577379,
208.9813538,3.563877106,208.9813538,3.564631224,208.9813538,3.552189589,
207.9905701,3.527287245,207.9905701,3.502294779,207.9905701,3.559033155,
206.9997101,3.562968969,206.9997101,3.593453884,206.9997101,3.643575668,
206.0087738,3.601326227,206.0087738,3.662865877,206.0087738,3.700316429,
205.0177765,3.598011732,205.0177765,3.642106771,205.0177765,3.573087215,
203.98703,3.649460077,203.98703,3.593910694,203.98703,3.536434412,
202.9958954,3.569275141,202.9958954,3.588947773,202.9958954,3.59315443,
202.0046539,3.612593174,202.0046539,3.648522854,202.0046539,3.623878717,
201.0133362,3.637425184,201.0133362,3.654177904,201.0133362,3.707149029,
199.9822845,3.521891117,199.9822845,3.515421629,199.9822845,3.54446578,

sample13,
sample13
Collection Time: 15/04/2026 2:05:59 PM
Operator Name  :
Scan Version 5.3.0.1083
Parameter List :
Instrument  Cary 60
Instrument Version  2.00
Start (nm)  800.0
Stop (nm)  200.0
X Mode  Nanometers
Y Mode  Abs
UV-Vis Scan Rate (nm/min)  600.000
UV-Vis Data Interval (nm)  1.00
UV-Vis Ave. Time (sec)  0.1000
Beam Mode  Dual Beam
Baseline Correction  Off
Cycle Mode  Off
Method Log     :
Method Name    :
Date/Time stamp: 15/04/2026 1:06:08 PM
Method Modifications:
UVVIS SAT Changed: 15/04/2026 1:27:59 PM, Old:0.0125, New:0.1000
Common SAT Changed: 15/04/2026 1:27:59 PM, Old:0.0125, New:0.1000
Common Interval nm Changed: 15/04/2026 1:28:02 PM, Old:     5.00, New:     1.00
End Method Modifications
<Current Wavelength> , 201.0

sample14,
sample14
Collection Time: 15/04/2026 2:07:02 PM
Operator Name  :
Scan Version 5.3.0.1083
Parameter List :
Instrument  Cary 60
Instrument Version  2.00
Start (nm)  800.0
Stop (nm)  200.0
X Mode  Nanometers
Y Mode  Abs
UV-Vis Scan Rate (nm/min)  600.000
UV-Vis Data Interval (nm)  1.00
UV-Vis Ave. Time (sec)  0.1000
Beam Mode  Dual Beam
Baseline Correction  Off
Cycle Mode  Off
Method Log     :
Method Name    :
Date/Time stamp: 15/04/2026 1:06:08 PM
Method Modifications:
UVVIS SAT Changed: 15/04/2026 1:27:59 PM, Old:0.0125, New:0.1000
Common SAT Changed: 15/04/2026 1:27:59 PM, Old:0.0125, New:0.1000
Common Interval nm Changed: 15/04/2026 1:28:02 PM, Old:     5.00, New:     1.00
End Method Modifications
<Current Wavelength> , 202.0

sample15,
sample15
Collection Time: 15/04/2026 2:08:06 PM
Operator Name  :
Scan Version 5.3.0.1083
Parameter List :
Instrument  Cary 60
Instrument Version  2.00
Start (nm)  800.0
Stop (nm)  200.0
X Mode  Nanometers
Y Mode  Abs
UV-Vis Scan Rate (nm/min)  600.000
UV-Vis Data Interval (nm)  1.00
UV-Vis Ave. Time (sec)  0.1000
Beam Mode  Dual Beam
Baseline Correction  Off
Cycle Mode  Off
Method Log     :
Method Name    :
Date/Time stamp: 15/04/2026 1:06:08 PM
Method Modifications:
UVVIS SAT Changed: 15/04/2026 1:27:59 PM, Old:0.0125, New:0.1000
Common SAT Changed: 15/04/2026 1:27:59 PM, Old:0.0125, New:0.1000
Common Interval nm Changed: 15/04/2026 1:28:02 PM, Old:     5.00, New:     1.00
End Method Modifications
<Current Wavelength> , 202.0

